152738.8129,-47134.50934
187500,-35303.1275
3479.294894,-60547.38886
-134578.0876,-63289.70203
0,0
166464.9298,-61029.47128
-56525.21479,-60904.94971
-152684.2299,-60907.18489
9269.246074,-61042.23413
152776.0285,-61063.40123
-54216.19019,-60961.29846
-155791.3236,-60927.32381
-49278.64513,-61007.2313
120158.0161,-61040.89302
-57586.43092,-60957.87864
-155441.2506,-60916.97495
-106271.9502,-60988.54524
66240.75815,-61034.50042
-63757.16642,-60974.08366
-157978.5312,-60925.40156
-142363.826,-60984.2537
-21648.11154,-61045.7657
-86321.40891,-61006.31487
-161630.4039,-60950.59198
-158242.17,-60982.51027
-140434.4458,-61044.33519
-143793.4883,-61020.91056
-163898.1225,-60953.83298
-164786.9172,-60973.63662
-147049.9363,-61037.67437
-145553.2188,-61030.52181
-164768.1641,-60978.28579
-169779.0229,-61022.43048
-153128.5826,-61160.05017
-147674.4217,-61239.153
-165565.7638,-61333.99145
-174695.8032,-61513.4536
-116611.9789,-61719.91667
45588.90856,-61788.62593
-91053.38497,-61610.14725
-146934.7801,-61218.27647
-9228.789416,-60825.82454
159669.5524,-60460.82055
36906.73106,-60057.59508
-126077.2274,-59889.82289
7417.493453,-60017.94309
176796.9566,-60314.68485
118891.9909,-60593.76873
-85555.61579,-60798.64482
5945.11699,-61005.93489
180576.793,-61121.3146
170941.1795,-61108.41764
-9427.116445,-61076.00761
-5048.834389,-61130.54587
176225.3107,-61208.10642
187500,-61210.00632
61383.3888,-61157.815
-9264.351042,-61174.4447
168049.1543,-61248.8313
187500,-61266.28801
112080.9674,-61216.01894
-5897.753644,-61218.41058
155386.8464,-61279.94493
187500,-61309.47158
147002.7294,-61267.78558
6941.445999,-61249.72537
137369.6416,-61317.00412
187500,-61362.62403
170612.4524,-61326.39186
30115.93582,-61301.76023
115343.808,-61354.28683
187500,-61406.88049
185800.5969,-61371.45297
61930.11247,-61341.41223
92135.49997,-61398.90091
187500,-61470.73942
187500,-61460.2341
98107.90844,-61419.30806
77166.78258,-61443.62675
187500,-61517.40986
187500,-61531.75968
131702.2004,-61503.68589
83288.97009,-61538.62167
187404.9604,-61616.42809
187500,-61652.66027
183939.3671,-61611.89069
163663.4739,-61621.50194
187500,-61700.35889
187500,-61718.24029
163270.2843,-61654.58252
131697.1936,-61654.71663
149417.5001,-61676.30841
151087.4213,-61683.52803
143763.0229,-61688.44541
141855.0333,-61685.96437
145609.3217,-61664.21612
147314.4468,-61636.74583
144595.2454,-61615.28815
142450.1261,-61584.91213
144467.9969,-61535.15715
146707.5299,-61491.30303
145101.9147,-61442.03978
142516.4661,-61396.7775
142400.7511,-61359.53949
144263.9925,-61319.75339
143286.439,-61290.51731
140671.7319,-61270.73601
140961.0082,-61249.05482
143164.7337,-61222.34448
142923.3125,-61206.00536
140417.5926,-61200.95387
139955.3809,-61194.00247
141889.4773,-61180.81494
142127.434,-61183.16188
139671.9831,-61186.08996
138576.0994,-61178.53507
140134.8654,-61167.4486
140653.2023,-61164.9452
133976.9374,-61175.36112
127228.6552,-61172.47774
136019.1045,-61164.72169
138599.7699,-61162.84414
125596.9778,-61172.92478
114337.2419,-61173.61768
127102.8372,-61163.13471
136498.0354,-61164.36406
121956.4598,-61162.01713
107281.1314,-61165.23578
115059.0244,-61168.40973
125052.1094,-61169.32615
115550.2263,-61171.36016
101860.4311,-61177.37277
107815.8522,-61172.83537
120621.5913,-61167.04627
117169.1408,-61181.50785
105118.8684,-61187.14049
107663.7262,-61181.75372
120402.8795,-61174.73527
120764.2178,-61179.09386
109316.6377,-61188.45924
108473.3511,-61191.67789
119628.615,-61189.33096
123133.9721,-61189.28625
113157.9415,-61196.97525
108962.4073,-61204.35133
118923.7528,-61199.23278
128942.7211,-61183.00541
121535.3082,-61187.3193
113070.6803,-61194.80714
119457.0207,-61190.44855
126157.4478,-61186.60405
119327.5147,-61196.34941
110209.1652,-61204.79837
114373.9881,-61205.98301
122603.0958,-61201.93734
118671.2451,-61205.75949
108810.6389,-61205.71479
111110.4993,-61187.9675
121141.3811,-61172.92478
120436.2953,-61178.02098
110367.9297,-61177.30572
110030.1948,-61167.51566
120651.2968,-61171.67308
123324.3195,-61194.3601
113765.8642,-61215.54955
110864.3843,-61223.95381
120590.8129,-61219.01407
125406.3845,-61215.23663
116530.1268,-61222.5233
110709.3302,-61220.48929
118730.5443,-61211.34743
126182.6606,-61198.94221
119741.2008,-61189.46507
112166.5299,-61186.0676
118189.2521,-61179.00445
127173.4687,-61175.51758
123092.1743,-61172.07541
114166.3628,-61179.40678
117543.2643,-61181.97723
127083.7265,-61182.15605
125575.4084,-61191.40967
115851.5055,-61191.85671
116587.4367,-61187.25225
126506.9174,-61178.89269
127455.056,-61174.60116
117986.7006,-61186.22407
116399.7938,-61191.56613
125769.2204,-61188.16867
128929.9806,-61191.56613
120159.2007,-61216.91301
116461.8869,-61273.59703
125318.8551,-61341.52399
130991.3702,-61426.21475
123661.7415,-61611.17543
118126.0414,-61801.58994
124905.929,-61894.50614
131877.9521,-61895.19905
126337.7147,-61692.31226
119274.5858,-61211.43683
124419.4432,-60729.2203
133118.7422,-60360.48357
130384.1627,-60095.99538
122431.6356,-60002.65449
125443.9354,-60120.5823
134553.903,-60424.92365
133359.0458,-60743.25719
124913.4838,-60984.36546
126065.2916,-61113.24562
135590.1969,-61158.08322
137209.2008,-61185.26294
128440.5668,-61224.06557
126124.1214,-61257.1685
132000.5962,-61274.89344
135860.273,-61286.18107
128291.0112,-61301.58142
124680.3328,-61306.47645
132258.0212,-61311.81852
137647.6079,-61321.7874
131042.1087,-61339.71349
125285.8416,-61348.6989
131194.3464,-61352.29753
137840.2353,-61364.68039
132596.2702,-61376.68328
125205.04,-61389.20026
129151.4417,-61392.68713
136948.8701,-61400.13026
134197.8397,-61420.67151
126090.2138,-61436.42949
128120.6015,-61444.69964
136698.6646,-61447.4489
136001.5137,-61463.63157
127442.3155,-61484.75396
127421.506,-61496.33217
135947.2884,-61504.80348
137679.3251,-61524.62948
129509.8742,-61554.3573
127220.8768,-61568.84123
135265.2473,-61581.84994
138650.2401,-61600.29013
131048.7471,-61629.72738
126759.4921,-61660.68455
133933.888,-61680.04116
139367.3959,-61700.4036
133840.5918,-61726.04105
127900.3698,-61749.7339
133454.3536,-61761.13328
139908.0846,-61777.20419
136157.9089,-61799.24301
129175.0674,-61812.00586
132667.5722,-61816.18563
139804.6407,-61818.59962
138246.8582,-61824.36637
131282.3005,-61816.07387
132639.4537,-61795.28675
139698.2464,-61761.98265
141140.4033,-61729.46086
137326.3463,-61700.80593
136061.8187,-61645.48536
141161.101,-61587.34847
142366.4188,-61546.46713
138839.3359,-61517.49927
136709.7734,-61467.94545
140963.2657,-61413.00486
142704.3996,-61381.01952
141134.0107,-61368.14491
139218.0862,-61354.59976
141391.011,-61333.11973
143073.9409,-61312.31026
142737.8154,-61303.48132
141498.2994,-61291.94782
141807.7146,-61280.59313
143180.4917,-61274.64757
143145.9136,-61276.9945
141908.7892,-61279.38614
141973.7657,-61271.16069
143363.709,-61263.6058
143722.8568,-61265.70687
142543.3105,-61272.18887
142249.4968,-61268.6126
143515.2538,-61260.67773
144124.7859,-61261.43769
143039.4969,-61264.41047
142407.4343,-61263.98578
143496.9477,-61258.88959
144380.9592,-61263.98578
143486.4871,-61275.58634
142601.5145,-61275.51928
143487.8729,-61261.97413
144600.431,-61260.00717
143995.034,-61270.13251
142898.9044,-61273.52998
143486.5988,-61271.18305
144763.3752,-61272.85943
144447.8356,-61279.90023
143220.4119,-61285.3317
143475.043,-61278.58147
144826.4071,-61273.32881
144863.7569,-61281.71072
143661.9036,-61284.43763
143622.5198,-61278.02268
145000.3484,-61274.89344
145431.6924,-61276.3016
144334.4229,-61285.82344
144005.6511,-61279.29673
145265.3283,-61274.78168
145972.8951,-61275.89926
144972.7663,-61283.05182
144320.6765,-61281.19663
145394.0073,-61276.79333
146335.6193,-61282.44833
145521.5464,-61291.14315
144595.7595,-61285.73403
145383.7479,-61279.11792
146495.546,-61284.7282
145949.0011,-61293.89242
144857.5431,-61304.39774
145353.0813,-61305.89531
146618.6817,-61300.64265
146403.9038,-61287.05278
145211.1477,-61273.73115
145242.7084,-61266.1092
145894.977,-61261.63885
145565.1546,-61265.30454
144147.8752,-61278.78264
143834.0791,-61283.52121
144965.8596,-61298.8098
145285.8696,-61321.89915
144071.9463,-61327.73296
143538.6784,-61316.93707
144602.5767,-61305.73884
145238.618,-61305.2024
144191.0588,-61308.66692
143384.2726,-61306.31999
144264.7748,-61286.87397
145134.4142,-61271.87595
144319.2013,-61269.46196
143302.3534,-61271.51832
143949.6599,-61262.42116
145019.8615,-61263.31523
144489.1863,-61271.98771
143315.9656,-61275.63104
143670.3078,-61267.27149
144848.893,-61261.68355
144637.289,-61266.82446
143398.8235,-61273.70879
143445.9187,-61268.67965
144655.5504,-61261.6165
144760.246,-61262.04118
143521.9146,-61265.84098
143241.9143,-61264.09754
144410.4411,-61268.23262
144831.2127,-61292.55131
143690.8267,-61361.90878
143122.7572,-61446.26426
144168.3718,-61557.44184
144865.5227,-61751.0303
143888.1926,-61935.02986
143063.7485,-62000.05108
143919.731,-61951.61485
144859.3312,-61637.55049
144134.643,-61108.43999
143115.0905,-60667.90946
143719.3029,-60319.55753
144879.5149,-60086.11591
145022.2978,-60056.18692
144372.622,-60259.72191
144826.5189,-60584.5151
146075.1544,-60860.73796
145970.66,-61078.17573
144761.2071,-61180.54672
144756.3344,-61212.2862
145965.9214,-61246.10439
146156.2689,-61293.13246
144957.5448,-61329.00701
144632.7069,-61334.23732
145783.2182,-61333.27619
146280.4998,-61342.28395
145191.4111,-61358.57837
144580.0462,-61373.01759
145596.5365,-61377.24207
146359.3345,-61389.15555
145447.8527,-61406.70167
144591.1103,-61409.98738
145398.8353,-61407.93102
146381.9097,-61417.58697
145717.9288,-61439.49168
144662.9041,-61454.06502
145201.2235,-61450.68991
146335.9992,-61456.3896
145967.3519,-61475.99208
144798.1992,-61490.3866
145046.1248,-61494.65579
146259.3104,-61502.34479
146208.8849,-61519.77915
144987.675,-61541.32623
144910.2485,-61549.10464
146117.3545,-61557.53124
146381.2392,-61578.00544
145207.2361,-61605.69925
144823.9037,-61629.14623
145951.6163,-61644.0325
146506.856,-61666.58541
145453.4853,-61697.78844
144798.4004,-61720.09548
145776.7586,-61730.93608
146591.5244,-61754.83009
145731.3398,-61780.98163
144840.2875,-61803.44514
145609.6793,-61814.50925
146680.4843,-61828.14381
146151.9326,-61845.26525
145161.5492,-61856.7317
145715.1125,-61850.45086
146931.4497,-61841.57721
146692.1072,-61837.15157
145570.2285,-61820.8795
145803.2678,-61785.89902
147068.6,-61751.74555
147132.526,-61713.43466
145967.7989,-61675.05672
145862.4105,-61618.08212
147082.0111,-61571.14346
147448.7138,-61528.29516
146335.5522,-61491.07951
145931.8126,-61450.48874
147072.3104,-61416.20116
147725.8307,-61391.77071
146744.1868,-61377.68911
146064.3361,-61353.99626
146859.0301,-61329.85638
147133.0624,-61330.30341
145999.6055,-61328.55997
144909.0862,-61318.16641
145506.7048,-61309.87392
146468.098,-61303.77189
145863.3492,-61309.58334
144722.0468,-61309.35983
145105.6028,-61297.33459
146224.777,-61292.08193
145944.3743,-61299.16743
144723.7232,-61302.6096
144804.2565,-61293.49009
145967.1284,-61288.86328
146007.8309,-61297.66986
144790.6667,-61303.63778
144577.0063,-61300.24031
145734.5585,-61291.05375
146108.3467,-61291.83606
144976.4991,-61300.88851
144467.0358,-61304.04011
145511.6892,-61297.66986
146151.7538,-61297.93808
145172.7697,-61305.09064
144405.7473,-61305.22475
145280.371,-61299.50271
146153.162,-61300.68735
145380.0598,-61304.66596
144399.8688,-61302.69901
145031.5961,-61301.15674
146076.4508,-61301.67083
145580.4879,-61307.37052
144457.4022,-61313.31608
144806.6258,-61306.16353
145959.3723,-61303.07899
145772.1318,-61312.33261
144580.5156,-61316.57944
144625.152,-61309.62805
145813.5272,-61299.74858
145940.9992,-61306.11882
144758.659,-61308.80103
144485.7889,-61302.09551
145614.4849,-61300.55324
146120.7519,-61301.82729
145661.6695,-61302.54254
145573.76,-61303.14604
146737.146,-61301.11203
147500.6816,-61304.97888
146600.5768,-61320.11101
145819.1151,-61322.03326
146661.0383,-61309.94097
147585.9535,-61294.98765
146889.272,-61295.27823
145899.7155,-61292.14898
146484.4372,-61278.60383
147566.9098,-61281.42015
147146.9876,-61292.93129
146022.9407,-61302.38608
146320.6883,-61314.70189
147492.8138,-61321.8321
147377.2999,-61325.96717
146196.8373,-61325.56484
146185.6837,-61327.97883
147369.2533,-61322.70382
147568.6532,-61320.42394
146417.1584,-61319.59692
146106.4468,-61306.74467
147235.9252,-61289.2209
147726.0542,-61287.00808
146673.0635,-61288.03626
146081.1446,-61287.1869
147068.8235,-61285.48816
147818.881,-61286.85162
146943.4749,-61296.06054
146113.8229,-61294.98765
146902.9512,-61281.24133
147861.8411,-61281.01781
147228.9291,-61291.97017
146220.5748,-61296.01583
146752.971,-61291.81371
147853.0121,-61282.04599
147499.3405,-61284.50469
146365.2353,-61291.88076
146606.8353,-61299.14508
147783.0512,-61339.8029
147730.5022,-61419.55393
146550.9783,-61507.0163
146476.4352,-61664.57375
147667.3362,-61848.4839
147983.9486,-61968.35631
146922.3972,-62011.98691
146643.224,-61882.68207
147826.57,-61454.66852
148453.7376,-60969.72507
147513.4444,-60597.27795
146951.9686,-60276.75394
147967.1848,-60155.56278
148808.3257,-60240.43235
148016.3587,-60499.95846
147189.1653,-60802.46697
147957.0595,-61027.34787
148967.3136,-61187.72163
148411.5822,-61268.41143
147401.5292,-61298.83215
147909.3162,-61303.23545
149062.3533,-61329.74462
148800.1449,-61357.97487
147690.6267,-61368.18962
147905.1364,-61369.59778
148885.6851,-61380.50543
148322.8458,-61397.11277
146861.2205,-61411.35084
146585.9811,-61409.89797
147643.9339,-61409.6074
147876.6156,-61424.53836
146705.0712,-61438.88818
146242.3901,-61437.2118
147272.135,-61443.82792
147817.8528,-61460.8823
146800.2226,-61477.28848
146090.2418,-61482.89877
146963.7927,-61487.54793
147750.4623,-61495.50515
146936.7471,-61513.85594
146017.7327,-61527.57991
146686.2734,-61531.24559
147675.9193,-61546.19891
147131.8778,-61566.91898
146064.135,-61579.4136
146467.1146,-61585.73915
147572.7213,-61600.4913
147314.4468,-61627.58161
146155.4642,-61658.53878
146267.1112,-61669.66995
147424.3727,-61684.13153
147470.082,-61712.51824
146295.3414,-61745.82234
146099.9648,-61762.96613
147219.2284,-61779.08174
147566.7533,-61801.85816
146473.3954,-61826.19921
145999.6502,-61833.61999
147026.3999,-61834.13408
147647.6219,-61847.03104
146701.6961,-61854.9212
145984.3616,-61847.07574
146841.4392,-61835.36343
147684.86,-61826.26627
146946.5818,-61813.21285
146021.6666,-61782.99329
146643.7828,-61738.58037
147644.5374,-61686.05378
147285.5684,-61644.85951
146875.5033,-61597.65263
147624.5102,-61548.0094
148875.9844,-61508.42446
148748.3336,-61478.47312
147634.8591,-61450.26522
147721.8074,-61417.02818
148882.5782,-61391.16721
149006.0716,-61374.17988
147871.9217,-61365.28389
147636.9155,-61349.03417
148750.5017,-61334.03615
149163.629,-61333.54441
148110.1913,-61334.72906
147603.3431,-61325.56484
148606.3777,-61314.50073
149279.4558,-61316.35592
148384.7601,-61326.39186
147631.2605,-61322.4356
148450.2731,-61310.52212
149335.0445,-61307.45993
148652.6234,-61315.4395
147711.5256,-61317.40645
148297.0295,-61310.81269
149339.7608,-61307.77285
148923.1466,-61311.95263
147851.3134,-61315.05952
148164.2825,-61305.71649
149300.3993,-61303.61543
149173.0838,-61313.96429
148038.241,-61315.61831
148050.1098,-61311.90792
149203.7951,-61309.67275
149384.3301,-61318.21112
148269.1569,-61330.63869
147985.0662,-61325.34132
149080.4582,-61310.20919
149541.7758,-61315.10422
148522.4022,-61325.85541
147971.2305,-61324.24609
148945.3866,-61318.72521
149657.5579,-61324.96134
148801.4637,-61335.39961
148014.0564,-61332.22566
148794.2888,-61325.09545
149738.5606,-61326.63772
149173.9779,-61333.49971
148279.5952,-61329.92343
148892.2788,-61326.39186
150023.59,-61325.11781
149734.9843,-61326.23539
148718.0917,-61329.5211
149025.8082,-61324.89429
150211.9705,-61321.72034
150201.1299,-61329.74462
149120.7137,-61336.98658
149117.942,-61337.09834
150286.983,-61336.98658
150553.2817,-61338.79707
149487.7293,-61333.43265
149187.523,-61315.28304
150294.3367,-61301.42496
150848.0565,-61304.5095
149897.638,-61306.83408
149330.9765,-61301.87199
150286.2677,-61301.64847
150791.976,-61320.64746
149427.916,-61355.15855
148347.2986,-61369.2178
148938.4352,-61361.03706
149783.6441,-61352.31988
149135.4211,-61356.03027
148086.6996,-61354.55505
148517.4848,-61340.24994
149551.8788,-61329.69991
149210.2771,-61328.38116
148084.5091,-61320.73686
148251.1861,-61308.01872
149350.132,-61304.46479
149305.5849,-61309.87392
148153.509,-61317.36175
148030.7085,-61314.7913
149135.8234,-61307.45993
149402.0104,-61311.37148
148309.9935,-61321.36271
147905.9858,-61321.38506
148929.651,-61308.08578
149471.3455,-61311.93028
148502.1515,-61319.08283
147851.7828,-61319.2393
148731.3016,-61309.15866
149502.0791,-61314.54543
148719.634,-61345.05556
147839.9364,-61410.45677
148493.0543,-61472.90754
149437.9073,-61577.20078
148890.8483,-61761.62502
147866.1997,-61923.54106
148271.7944,-62006.46603
149344.7228,-62004.96846
149097.222,-61756.46177
148004.8922,-61258.88959
148151.475,-60825.95865
149295.3031,-60459.5018
149349.4614,-60237.48192
148234.1764,-60221.38866
148070.3381,-60374.98985
149153.6378,-60667.73065
149460.6613,-60944.13232
148576.7393,-61151.71297
148802.8719,-61265.12572
150142.3001,-61306.61056
150849.3752,-61320.22277
149977.2996,-61346.08374
149315.9785,-61367.2732
150173.2573,-61371.27416
150996.2932,-61384.6405
150276.7012,-61399.05738
149392.5332,-61405.13705
150019.8349,-61409.0039
151002.9541,-61416.82701
150526.996,-61429.56751
149495.396,-61439.49168
149860.4223,-61444.1632
150947.7453,-61446.57718
150756.8614,-61462.0893
149658.6978,-61474.11453
149745.3555,-61476.8191
150869.6483,-61478.29431
150971.9745,-61494.47697
149866.4796,-61509.34088
149661.2235,-61517.78984
150749.3959,-61520.29324
151136.6622,-61535.60418
150110.4936,-61557.24067
149639.5647,-61567.29896
150623.1085,-61573.44569
151263.3072,-61591.72941
150388.7728,-61617.54568
149670.5219,-61633.7954
150482.2031,-61646.55824
151339.929,-61666.63011
150660.5253,-61696.87202
149755.3914,-61714.48519
150339.3308,-61728.07505
151349.6967,-61752.30435
150932.0096,-61778.07591
149897.8391,-61796.5161
150214.4069,-61807.42375
151310.0894,-61821.55005
151172.3132,-61842.96302
150076.3401,-61855.25648
150109.9572,-61853.02131
151231.9924,-61849.89206
151419.9929,-61852.44016
150399.0993,-61845.8464
150216.4856,-61828.30028
151361.6102,-61793.76683
151871.0064,-61760.48508
150937.9105,-61727.73978
150476.2129,-61677.22484
151476.1181,-61624.63118
152212.094,-61581.15704
151423.7704,-61546.91417
150721.0315,-61510.74904
151526.8343,-61467.54312
152437.489,-61441.59275
151849.1688,-61427.08646
150949.5557,-61405.13705
151507.2765,-61383.45586
152565.2069,-61368.68136
152244.8617,-61362.89225
151230.9642,-61360.14299
151520.084,-61351.38111
152638.0736,-61345.01086
152254.0483,-61349.32474
150635.2232,-61351.06818
150368.6786,-61341.0993
151342.0747,-61333.38795
151459.0861,-61337.41127
150320.6894,-61344.98851
149954.2326,-61336.53955
150948.2146,-61332.7621
151382.6879,-61333.9691
150371.0255,-61342.21689
149766.4556,-61338.26063
150645.4826,-61326.66008
151321.8017,-61327.33063
150482.5384,-61337.00893
149666.275,-61336.11486
150364.8341,-61335.42196
151249.5385,-61337.74654
150654.5798,-61342.77568
149683.7318,-61342.14983
150141.339,-61337.63478
151151.9955,-61334.77376
150828.074,-61341.0546
149759.2807,-61345.32378
149948.8681,-61340.00407
151031.8325,-61336.11486
150994.1922,-61342.3063
149884.0704,-61349.01182
149783.5323,-61345.25673
150860.9087,-61340.94284
151103.8722,-61349.41415
150035.66,-61357.6843
149666.1633,-61352.96808
150674.2046,-61344.2956
151186.8866,-61350.6435
150235.5963,-61361.10411
149618.5541,-61353.01278
150487.5452,-61344.63088
151232.7524,-61346.06139
150471.2284,-61348.52008
149643.7892,-61352.67751
150305.4455,-61348.36362
151215.6086,-61341.0993
150670.6507,-61348.65419
149931.0091,-61345.70376
151001.4565,-61339.04294
152333.3746,-61339.04294
152173.1573,-61347.87188
151152.6884,-61361.55115
151328.0378,-61357.30432
152435.5891,-61350.97877
152465.9651,-61343.73681
151377.5917,-61341.92632
151240.5531,-61332.89621
152319.5165,-61322.4356
152628.3059,-61323.10615
151600.4385,-61329.4764
151193.4803,-61339.86996
152184.7355,-61358.22074
152748.7371,-61377.66676
151836.8306,-61380.59484
151185.9031,-61367.02733
152022.8865,-61361.21587
152808.0586,-61363.40634
152093.5851,-61361.37234
151247.281,-61360.38886
151873.0404,-61340.85343
152822.252,-61332.91856
152353.2006,-61333.45501
151360.3361,-61328.62703
151731.7103,-61327.53179
152789.7302,-61333.49971
152588.3409,-61338.08182
151515.0325,-61340.83108
151609.3792,-61331.66687
152702.9607,-61326.83889
152783.4046,-61334.81846
151705.447,-61340.42875
151519.4805,-61334.6173
152580.5625,-61323.21791
152937.8328,-61329.27523
151926.1035,-61340.94284
151470.2396,-61340.00407
152430.4929,-61350.95642
153037.2534,-61414.41302
152162.0485,-61494.34286
151466.4845,-61594.34457
152256.9093,-61762.6532
153076.0113,-61932.07943
152433.3987,-62034.2716
151618.2752,-62040.6642
152273.606,-61785.87667
153333.1011,-61275.87691
152997.3332,-60841.26959
152064.0137,-60501.97011
152457.4044,-60263.56641
153581.2054,-60220.20402
153483.2601,-60385.1599
152450.0507,-60691.33409
152530.2935,-60950.8602
153650.4511,-61150.64009
153812.9483,-61286.56105
152773.2569,-61338.70767
152563.8211,-61347.82718
153638.6047,-61355.67264
154081.1022,-61378.47142
153134.9305,-61398.47623
152666.7956,-61409.04861
153626.6018,-61410.38971
154287.5429,-61416.75996
153083.6556,-61437.07769
151864.7703,-61450.73461
152406.353,-61449.57232
153125.4981,-61451.62868
152412.1645,-61467.3196
151436.3767,-61481.33415
151905.8751,-61484.97748
152851.8233,-61488.73258
152433.9351,-61505.27287
151370.3273,-61517.2981
151597.7563,-61514.16886
152635.3243,-61521.07555
152502.7785,-61538.24169
151387.4935,-61551.36216
151344.1758,-61556.07838
152403.2014,-61562.18041
152572.3595,-61582.67696
151499.9898,-61606.34745
151194.8661,-61617.121
152199.89,-61627.89454
152630.3175,-61648.6146
151653.5463,-61671.77101
151094.1268,-61687.97603
151980.53,-61701.38707
152651.7752,-61726.73395
151835.1319,-61755.54535
151050.6974,-61772.97971
151747.0213,-61789.52
152605.3059,-61809.4354
152006.1004,-61836.72688
151057.2465,-61854.80945
151528.4212,-61860.26327
152523.7891,-61869.13691
152196.4031,-61882.19033
151142.6972,-61882.72677
151344.2205,-61875.32835
152414.8244,-61862.40904
152364.4882,-61851.59079
151280.3392,-61831.27306
151210.5794,-61790.63759
152275.5283,-61746.44819
152493.1896,-61705.72331
151439.7519,-61666.98774
151408.1465,-61613.47766
153042.2602,-61562.44863
153788.0932,-61531.06678
152943.2643,-61507.35158
152396.8312,-61473.17576
153284.1061,-61439.42463
154015.6786,-61422.90669
153254.4229,-61413.18368
152457.5162,-61395.07877
153130.0802,-61376.79504
154032.5766,-61372.23528
153491.7314,-61377.68911
152536.6414,-61374.11283
152970.5111,-61355.69499
153989.2812,-61352.87867
153710.2421,-61360.83589
152663.5099,-61364.61334
152827.6611,-61355.35972
153903.2494,-61351.47051
153909.3961,-61350.75526
152833.9419,-61355.11385
152720.8644,-61347.89423
153785.8804,-61345.05556
154066.3501,-61349.88354
153043.7354,-61354.13037
152661.6323,-61354.62211
153642.7174,-61347.73777
154182.065,-61345.86022
153273.4219,-61354.55505
152645.7626,-61350.6435
153484.8024,-61344.87675
154244.5605,-61350.41998
153518.5758,-61359.38303
152688.8567,-61355.33736
153321.4335,-61349.66002
154251.3554,-61354.73387
153758.9018,-61362.48992
152784.3657,-61365.61917
153171.9003,-61355.24796
154206.2273,-61351.26935
153982.3522,-61363.58516
152927.8639,-61367.87669
153043.8695,-61357.59489
154119.7931,-61357.86311
154182.5568,-61366.6697
153155.2482,-61370.49185
153055.783,-61364.94861
154183.4508,-61357.86311
154593.2477,-61359.78536
153658.7436,-61366.17796
153292.8009,-61361.88643
154306.8101,-61355.11385
154946.517,-61357.55019
154127.8844,-61363.89808
153511.088,-61359.42773
154357.9956,-61348.67654
155189.6817,-61354.33154
154536.4966,-61364.1663
153707.9398,-61361.32763
154323.5292,-61354.82327
155305.9107,-61353.2363
154903.5346,-61348.18481
153949.8751,-61339.35587
154326.1444,-61336.69601
155406.6277,-61355.1362
155226.5173,-61339.1994
153740.1934,-61291.79135
153351.4742,-61268.03145
154235.4857,-61267.87499
154229.6742,-61301.87199
153079.9229,-61334.79611
152789.6855,-61368.54725
153771.9552,-61399.52676
154112.1488,-61420.67151
153077.7771,-61434.23902
152562.8153,-61420.33624
153463.8588,-61398.87856
154057.0964,-61398.65504
153177.98,-61407.97572
152434.9409,-61400.59965
153169.6204,-61384.99813
153974.8197,-61375.90097
153314.3703,-61370.44714
152408.7,-61363.78632
152933.7425,-61357.0808
153886.9102,-61356.94669
153477.9404,-61363.33929
152449.6484,-61366.22266
152721.8479,-61359.6736
153769.8989,-61359.49479
153641.5551,-61366.13326
152562.1,-61367.69788
152555.5062,-61357.79606
153614.1743,-61354.35389
153754.4091,-61359.29362
152682.2853,-61361.72996
152402.9332,-61362.24405
153423.3127,-61361.41704
153844.3525,-61384.88637
152867.2907,-61452.56745
152335.3192,-61524.16009
153232.1606,-61614.17056
153883.8481,-61795.62203
153053.8384,-61975.50887
152296.8295,-62067.12867
153021.6966,-62063.66415
153872.7169,-61811.53647
153265.0177,-61304.80007
152355.3017,-60861.63203
153250.5561,-60523.5619
154846.3812,-60295.14942
154714.7071,-60241.1029
153764.2439,-60398.01215
154033.493,-60702.55467
155109.4166,-60976.07296
155037.958,-61188.48159
153965.3202,-61313.56195
153925.1317,-61355.1362
154988.896,-61364.23336
155190.3522,-61386.85332
154143.7541,-61411.90963
153832.0367,-61419.71039
154841.8215,-61420.22448
155309.107,-61428.56168
154360.5437,-61445.77252
153797.3692,-61453.93091
154681.3136,-61458.62478
155379.895,-61471.34292
154595.2594,-61484.41869
153820.1456,-61488.17378
154515.4637,-61489.85016
155397.307,-61497.94149
154835.7194,-61512.31367
153897.9967,-61519.66739
154357.5486,-61521.32142
155364.3829,-61527.93753
155060.1757,-61542.98026
154019.0091,-61557.17362
154211.0105,-61562.22511
155283.7155,-61573.13276
155257.9215,-61592.53408
154182.1768,-61610.50488
154100.6823,-61617.7692
155166.1229,-61626.68754
155420.8434,-61648.68166
154390.1821,-61671.10046
154033.8953,-61685.18206
155022.7141,-61698.63781
155537.0501,-61723.04591
154622.3497,-61749.95741
154019.1208,-61768.73288
154868.3306,-61789.14002
155603.703,-61812.98933
154871.5046,-61834.06703
154107.7678,-61852.10488
154826.0635,-61858.74335
155811.5743,-61872.24381
155371.5802,-61895.33316
154484.6182,-61899.93762
154956.3965,-61891.15338
156029.0567,-61888.58293
155831.9814,-61887.5324
154840.5921,-61875.01542
155036.1922,-61842.18071
156156.6852,-61807.87078
156224.3886,-61775.88544
155196.2531,-61737.0381
155091.2446,-61681.96341
156178.0982,-61634.98004
156516.0118,-61599.30665
155543.2863,-61564.79556
155181.0986,-61522.48371
156180.9368,-61486.76562
156763.4904,-61470.58296
155836.4517,-61458.51302
154723.6254,-61436.36244
155133.5341,-61419.73274
155718.7698,-61412.1108
154902.3723,-61405.33822
153981.7934,-61391.23427
154525.7455,-61380.86306
155402.8726,-61381.17598
154898.282,-61384.95343
153880.7188,-61387.16625
154199.0077,-61379.29843
155193.4591,-61372.23528
154961.2245,-61377.93498
153869.4759,-61378.33731
153925.3776,-61371.07299
154968.1759,-61366.625
155025.1728,-61371.38592
153950.4116,-61373.50933
153747.9495,-61371.29651
154769.603,-61367.85434
155103.1134,-61370.31303
154095.8991,-61375.76686
153628.01,-61370.80477
154549.0136,-61368.41313
155129.2202,-61370.5142
154260.989,-61379.4996
153569.2696,-61378.82905
154326.882,-61371.27416
155107.1814,-61373.41993
154428.3813,-61379.25373
153547.1637,-61380.32661
154101.1517,-61372.54821
155046.3623,-61369.2625
154616.3818,-61378.82905
153613.6378,-61380.39367
153917.1522,-61376.10213
154953.2002,-61379.58901
154803.8906,-61385.08754
153740.9757,-61387.81445
153765.4956,-61382.94177
154828.8128,-61374.87279
154948.864,-61379.18668
153878.3048,-61390.45195
153653.6027,-61386.5851
155133.5341,-61370.93888
156074.2073,-61374.51516
155287.1576,-61383.2994
154868.2859,-61381.04187
155817.7657,-61370.4695
156467.0839,-61371.72119
155647.3336,-61378.71729
154936.7717,-61376.63858
155680.593,-61368.25667
156509.9769,-61370.22363
155889.7383,-61378.29261
154998.5743,-61381.10893
155517.7829,-61372.79408
156485.8817,-61374.02342
156111.6017,-61382.67355
155099.5371,-61380.99717
155363.0195,-61377.46559
156415.7866,-61386.65216
156316.3437,-61396.30811
155254.7476,-61386.09336
155247.0362,-61363.92043
156309.6382,-61351.55992
156484.9206,-61361.21587
155449.8113,-61370.15657
155169.2075,-61368.97193
156179.931,-61372.01177
156625.3566,-61393.80472
155684.3258,-61411.32848
155150.812,-61411.19437
156036.3658,-61397.89509
156708.3262,-61398.54329
155918.2591,-61409.38388
155168.5593,-61404.60061
155877.6907,-61389.28966
156737.0706,-61386.11572
156163.6589,-61381.62302
155245.941,-61370.02246
155728.2693,-61362.73579
156718.1387,-61359.80771
156393.3902,-61366.96027
155373.2118,-61373.53168
155592.9295,-61369.28485
156649.1165,-61360.54532
156599.585,-61368.77076
155555.3562,-61373.68815
155548.7177,-61371.18475
156674.9327,-61366.15561
156975.0273,-61365.75328
156020.6301,-61370.13422
155769.0389,-61362.57933
156824.3318,-61358.55602
157364.7076,-61370.49185
156495.4929,-61406.81343
155970.3834,-61475.54505
156867.9177,-61548.07646
157616.3212,-61680.86817
156886.2908,-61879.39636
156131.9865,-62027.43197
156828.9363,-62083.24427
157740.3957,-62008.23182
157248.9926,-61628.76625
156371.9325,-61089.79864
156858.3065,-60705.95213
157910.6042,-60417.01113
157676.9391,-60246.73554
156575.5569,-60271.32246
156224.2992,-60501.45602
156911.7271,-60815.90036
156731.4156,-61076.16408
155558.9325,-61259.87306
155364.2711,-61342.55217
156344.4622,-61367.65318
156559.6424,-61387.92621
155504.3719,-61415.3965
155087.6907,-61424.04663
156017.0315,-61426.43826
156507.0041,-61438.84348
155579.6526,-61456.59077
154930.3567,-61462.11165
155721.7873,-61467.85605
156431.0529,-61477.66846
155690.8078,-61488.97844
154860.5075,-61495.77337
155471.0454,-61495.92984
156358.0744,-61507.5751
155849.6169,-61521.76845
154874.0974,-61536.92294
155243.2365,-61538.39815
156245.9357,-61542.98026
156004.0004,-61559.34174
154950.8086,-61570.91994
155053.6713,-61572.43986
156094.9497,-61578.47483
156120.7212,-61598.99373
155051.7714,-61618.19388
154880.6465,-61623.84887
155906.5468,-61628.16276
156213.1457,-61649.70984
155209.6418,-61676.10725
154779.9965,-61691.23938
155716.0206,-61703.6446
156271.4614,-61725.81753
155402.9844,-61752.01377
154740.8363,-61774.52198
155524.0638,-61787.46364
156290.3486,-61808.47428
155599.9479,-61840.88431
154738.4,-61862.02906
155354.034,-61870.61213
156806.6069,-61878.92698
156857.2112,-61898.95414
156043.5854,-61911.33701
156445.5815,-61909.92885
157502.372,-61911.15819
157339.0254,-61913.03574
156303.335,-61906.19611
156374.3465,-61885.52074
157433.8639,-61858.92217
157533.2844,-61829.35081
156482.5066,-61794.32563
156274.6353,-61745.77764
157295.216,-61691.68641
157662.0528,-61648.27933
156687.8297,-61612.27067
156224.7463,-61573.51274
157145.7946,-61531.82674
157752.0857,-61506.52456
156916.0634,-61488.3526
156229.4401,-61464.59269
156984.1915,-61442.44211
157786.9544,-61431.40035
157149.6614,-61429.61221
156282.5479,-61417.72108
156823.0354,-61400.77846
157778.6395,-61398.92327
157383.7289,-61406.4111
156395.2901,-61402.81247
156683.5158,-61393.35768
157722.8272,-61387.34506
157602.1725,-61391.34602
156554.3674,-61397.78333
156568.4714,-61392.3742
157626.2677,-61385.04283
157777.0749,-61387.03214
156743.4855,-61393.31298
156488.4968,-61390.29549
157495.4429,-61384.46169
157909.9113,-61387.36741
156959.6716,-61392.50832
156450.0965,-61391.77071
157343.1605,-61387.56858
157995.8538,-61387.59093
157201.2269,-61401.04668
156489.905,-61402.63366
157264.1918,-61388.66382
158173.5054,-61386.60745
157657.8954,-61397.29159
156833.5407,-61398.38682
157395.3965,-61391.18956
158428.4271,-61387.47917
158138.9944,-61394.58703
157182.1609,-61399.21384
157469.3361,-61395.36934
158564.7951,-61394.56468
158537.8836,-61400.10791
157524.0308,-61404.82413
157520.7675,-61400.37613
158606.8387,-61393.93883
158837.3299,-61401.49372
157848.4217,-61405.07
157587.2639,-61396.53163
158612.5384,-61392.68713
159104.8356,-61401.18079
158210.14,-61408.66863
157537.2407,-61403.72889
157872.3157,-61398.7668
158230.3683,-61403.1701
157306.906,-61410.2556
156440.6865,-61407.59574
157041.8366,-61399.99615
157842.8561,-61398.05155
157238.7555,-61404.73472
156277.3846,-61407.68515
156688.7238,-61399.50441
157647.1442,-61392.21774
157319.1994,-61402.38779
156262.6548,-61402.83482
156410.5116,-61400.10791
157426.6666,-61400.10791
157381.8514,-61405.96407
156312.0969,-61418.12341
156203.1098,-61421.63264
157227.4455,-61409.71916
157465.7822,-61393.51414
156434.9421,-61392.44126
156061.6903,-61387.56858
157014.9251,-61381.19833
157504.2942,-61390.11668
156590.0408,-61407.104
155984.3532,-61418.10106
156801.9354,-61422.72787
157499.6227,-61427.15352
156749.4535,-61435.31191
155941.5497,-61434.19432
156567.5326,-61426.3265
157445.4868,-61428.20405
156928.6697,-61429.09812
155976.9325,-61422.52671
156370.1891,-61409.6521
157369.4461,-61393.89412
157114.4574,-61393.38003
156077.8953,-61395.12347
156208.0719,-61382.91942
157254.9382,-61383.05353
157277.7816,-61390.85429
156217.2361,-61396.86691
156059.6786,-61394.47527
157157.194,-61386.5404
158024.3523,-61381.37715
157472.4877,-61386.69686
157222.3493,-61381.28774
158237.342,-61372.68232
158812.6983,-61374.42575
157948.2669,-61388.17208
157325.7485,-61387.76975
158128.9584,-61396.57633
158879.2394,-61437.25651
158183.8096,-61526.17175
157352.3694,-61617.65744
157946.8364,-61766.4977
158852.5961,-61956.59929
158382.7178,-62079.08685
157416.9212,-62103.94199
157780.2265,-61917.6849
158810.4631,-61425.81241
158626.0836,-60917.73491
157600.8985,-60591.24298
157702.5542,-60331.53806
158764.0609,-60191.81731
158840.9509,-60292.19899
157794.6657,-60595.78038
157606.2629,-60902.15575
158625.8377,-61139.39716
158970.3675,-61284.28117
157992.0763,-61347.82718
157543.9686,-61380.66189
158468.392,-61403.79595
159052.0631,-61429.34399
158206.8766,-61448.56649
157537.1513,-61452.94743
158308.1971,-61456.4343
159097.0572,-61467.00668
158447.0014,-61486.4974
157594.7964,-61496.60039
158153.7018,-61497.76268
159092.8774,-61504.22233
158680.1971,-61522.37195
157699.939,-61535.2242
158008.5272,-61532.09496
159037.0651,-61535.783
158886.6602,-61559.25233
157845.5159,-61572.26104
157905.5974,-61572.10458
159017.4179,-61578.18426
159218.4719,-61594.25516
158264.5217,-61605.11811
158103.8574,-61613.45531
159179.1328,-61617.36686
159632.9402,-61635.7847
158726.9793,-61658.71759
158294.5848,-61668.77588
159247.1938,-61679.66118
159925.4575,-61701.56589
159160.5808,-61726.82336
158482.8536,-61743.69892
159242.9023,-61756.72999
160096.4707,-61785.47433
159518.6558,-61815.85036
158669.4012,-61835.20697
159219.3436,-61851.43433
160217.0584,-61870.99211
159882.6316,-61897.14365
158920.8807,-61917.90842
159007.8067,-61931.87826
159507.6811,-61945.8034
159117.6655,-61962.70132
157917.645,-61974.14541
157803.3382,-61966.88109
158779.1483,-61956.06285
158894.1033,-61946.541
157817.1739,-61932.52646
157495.3535,-61902.88805
158450.2647,-61860.39738
158856.1948,-61821.05831
157889.4371,-61783.55208
157323.1333,-61736.90399
158159.4462,-61684.24328
158795.2416,-61639.94213
157992.1881,-61609.81197
157227.5126,-61575.34558
157903.6975,-61531.24559
158738.8034,-61502.85888
158151.489,-61489.0455
157225.9926,-61475.05331
157681.3424,-61454.82498
158644.1438,-61447.04657
158312.5109,-61447.80653
157286.1635,-61443.89498
157481.1378,-61428.15935
158511.4862,-61421.90086
158443.4028,-61424.06898
157372.8883,-61426.72884
157298.3005,-61420.96209
158327.956,-61418.72691
158548.2548,-61420.42564
157522.1533,-61422.16908
157180.5068,-61415.91059
158145.6105,-61409.94268
158619.5345,-61413.47425
157702.4201,-61420.47035
157122.2358,-61416.02235
157958.6828,-61413.72012
158655.5432,-61418.25752
157903.5411,-61427.01941
157112.5799,-61423.6443
157745.6037,-61410.47912
158730.3768,-61412.40137
158814.397,-61412.13315
158268.9921,-61413.27309
158820.879,-61408.73568
159867.9465,-61408.78039
159626.9723,-61414.88241
158617.2993,-61422.63847
158781.9646,-61417.87755
159832.2508,-61415.01652
159838.5092,-61416.82701
158791.9112,-61420.96209
158675.995,-61421.7891
159711.3278,-61414.12245
159988.1095,-61417.3411
158985.1196,-61425.76771
158604.6482,-61424.35955
159561.1241,-61419.35276
160086.0772,-61422.86198
159205.1726,-61428.8746
158589.6502,-61424.13603
159403.3431,-61414.77065
160142.1577,-61418.01166
159433.4733,-61425.36538
158621.8144,-61424.53836
159238.7672,-61418.27988
160141.0848,-61417.27405
159659.9859,-61422.34789
158707.7121,-61419.15159
159081.4557,-61413.85423
160094.2803,-61416.58114
159875.9708,-61421.54323
158844.3036,-61417.72108
158956.8223,-61415.21769
160009.1648,-61409.6521
160070.4756,-61414.793
159026.828,-61418.72691
158863.3026,-61416.89407
159891.4829,-61413.80953
160217.9972,-61421.8338
159234.9004,-61434.77546
158813.0112,-61436.4742
159750.9575,-61419.91155
160319.2059,-61407.32752
159466.6433,-61410.54617
158813.0783,-61405.53938
159618.9257,-61403.41597
160458.8149,-61407.59574
159863.342,-61423.0855
159103.718,-61432.7191
159753.4162,-61441.57039
160752.8073,-61446.82305
160384.4506,-61440.67632
159462.9999,-61445.68312
159842.5996,-61441.59275
160916.1315,-61434.88722
160797.7567,-61438.75407
159800.4219,-61437.92706
159895.7968,-61421.7444
160979.9011,-61405.38292
161116.3585,-61403.77359
160109.6136,-61405.7629
159933.5936,-61402.32073
160987.8583,-61398.25271
161394.9953,-61405.96407
160458.5466,-61414.21186
160019.2231,-61406.67932
160701.7113,-61402.34308
160782.6246,-61406.67932
159687.5232,-61415.86589
158853.2891,-61413.27309
159502.4508,-61405.65114
160234.001,-61406.18758
159543.5556,-61412.1555
158626.553,-61412.26726
159114.648,-61416.17881
160021.6818,-61462.04459
159593.5565,-61550.64691
158568.729,-61636.52231
158810.5972,-61796.47139
159802.21,-61976.38058
159651.9839,-62092.20732
158579.8378,-62130.47351
158572.5958,-61963.8189
159615.8412,-61500.71311
159762.7592,-61031.57235
158730.1086,-60676.47018
158464.7934,-60381.76243
159454.6404,-60257.26321
159857.24,-60351.76639
158893.7681,-60635.85706
158362.3106,-60936.2198
159230.4971,-61153.50111
159855.1389,-61308.89044
159035.3217,-61391.70365
158286.5159,-61414.56949
158984.2926,-61430.14865
159801.5171,-61450.5558
159199.2717,-61472.03582
158297.3565,-61477.10967
158770.6323,-61476.61793
159727.5775,-61484.91043
159382.936,-61503.06004
158372.7489,-61513.67712
158594.0312,-61517.02988
159622.0326,-61526.77524
159548.2942,-61540.54392
158493.0683,-61548.85877
158440.8547,-61551.83155
159467.4256,-61555.58664
159831.4684,-61563.52151
159440.6035,-61574.228
159465.4139,-61580.0618
160565.9468,-61582.38638
161074.9407,-61596.31152
160178.144,-61619.37852
159637.4106,-61629.05683
160500.255,-61633.43777
161181.7373,-61648.5252
160421.331,-61672.41921
159664.5233,-61682.81277
160340.5294,-61693.00517
161200.5575,-61717.99442
160654.1467,-61744.6377
159735.0207,-61762.47439
160176.3112,-61774.65609
161163.0066,-61797.8125
160866.533,-61832.12243
159846.0865,-61854.25065
160031.1813,-61872.44497
161075.276,-61889.72287
161049.9067,-61914.26509
160004.9627,-61937.01916
159917.6791,-61944.507
160952.7437,-61954.90056
161204.4914,-61970.1221
160200.1605,-61979.1969
159852.9485,-61978.23578
160816.6439,-61968.71394
161317.6806,-61958.00745
160424.9743,-61942.6071
159838.7328,-61909.12418
160668.8765,-61866.18648
161391.4637,-61825.75218
160670.2177,-61786.56957
159884.0174,-61741.57551
160521.9585,-61691.57466
161410.6862,-61648.05581
160908.4872,-61613.85764
159973.6255,-61578.29602
160377.3651,-61539.78396
161380.8914,-61514.92882
161136.6539,-61502.43419
160117.8613,-61485.60333
160255.034,-61463.78803
161333.1927,-61451.9416
161430.3111,-61447.3595
160464.9839,-61445.81723
160409.261,-61436.02716
161506.687,-61427.86877
161868.8299,-61429.07577
160942.7972,-61434.84252
160600.3685,-61429.85808
161598.6644,-61418.48104
162195.2772,-61417.65403
161375.6164,-61423.7337
160787.0949,-61421.96791
161616.7023,-61413.85423
162397.5158,-61417.22934
161742.8779,-61423.97957
160954.666,-61423.84546
161589.2096,-61417.27405
162540.5893,-61416.73761
162117.8731,-61422.66082
161190.9239,-61425.85712
161566.5003,-61419.41982
162285.7123,-61426.81824
161578.3243,-61432.76381
160308.477,-61434.64135
160262.9465,-61432.89792
161214.505,-61428.51698
161225.6809,-61435.60248
160124.9916,-61441.23512
159890.79,-61438.35174
160862.2638,-61434.64135
161167.7898,-61439.20111
160163.9283,-61442.50917
159687.4114,-61437.83765
160572.0711,-61434.14962
161118.6607,-61439.29052
160247.2779,-61445.34784
159557.4584,-61442.24095
160295.7365,-61439.20111
161061.0379,-61433.76964
160396.5429,-61445.99604
159530.8598,-61446.82305
160063.7254,-61438.84348
160979.2976,-61434.41784
160553.5863,-61442.08448
159565.6168,-61444.31966
159857.8435,-61436.04951
160863.4038,-61433.12143
160700.8172,-61438.30704
159645.0102,-61441.16806
159664.8585,-61432.13796
160694.067,-61428.53933
160804.8422,-61436.00481
159763.0498,-61445.23608
159517.9405,-61436.40714
160514.1131,-61433.25555
160895.8362,-61450.73461
159940.0532,-61459.36238
159449.5889,-61443.22442
160333.7121,-61423.19726
160948.4075,-61422.23614
160133.4852,-61427.08646
159415.0554,-61422.3926
160125.1257,-61417.9893
160920.356,-61429.09812
160541.494,-61452.92508
160297.7482,-61465.86674
161094.6996,-61456.81428
162152.7195,-61445.99604
161833.1119,-61450.91342
160857.5253,-61457.23897
161129.0766,-61453.41682
162169.0809,-61446.28661
162072.2532,-61440.60927
161024.381,-61436.78712
161013.6075,-61421.29736
162056.3611,-61412.13315
162227.5084,-61420.60446
161207.7324,-61424.20309
160925.8769,-61417.31875
161917.9144,-61411.90963
162350.8677,-61416.49174
161419.8952,-61420.89503
160891.4552,-61422.03497
161758.3676,-61417.2517
162419.3087,-61420.42564
161646.2513,-61428.67344
160907.3026,-61427.22057
161598.7091,-61417.87755
162443.7168,-61417.22934
161877.4801,-61431.28859
160976.5707,-61453.59563
161439.52,-61506.05518
162408.4681,-61570.33879
162091.051,-61680.44349
161075.2089,-61864.28659
161275.1229,-62024.32508
162311.5733,-62113.32972
162266.1993,-62123.20919
161233.0569,-61872.55673
161188.6664,-61363.5181
162239.556,-60929.26841
162477.0656,-60568.84653
161482.1001,-60342.11044
161162.5595,-60309.38748
162136.8497,-60460.08294
162612.4948,-60760.98213
161700.0296,-61043.44112
161124.1816,-61242.86339
161965.9036,-61361.39469
162700.136,-61416.13411
162024.6663,-61437.79295
161327.6942,-61453.93091
162050.5273,-61466.582
162994.7097,-61480.21656
162542.9809,-61496.10865
161677.7896,-61505.20581
162148.0926,-61509.81027
163191.0027,-61514.1018
162975.733,-61527.06582
162007.6343,-61538.35345
162205.8943,-61543.24848
163280.9908,-61545.66247
163320.6875,-61559.56525
162307.7065,-61575.50205
162220.6017,-61580.84411
163290.3338,-61580.91117
163604.2417,-61588.71193
162643.2508,-61605.45338
162301.4927,-61609.76727
163261.5895,-61612.1142
163425.5842,-61630.21912
162066.1735,-61657.28708
161243.4728,-61667.39007
161927.9503,-61672.2851
162567.5678,-61689.04891
161795.248,-61708.04789
160928.1568,-61723.35884
161499.825,-61734.98174
162357.8414,-61750.89619
161836.7105,-61782.38979
160855.6701,-61807.4014
161195.3272,-61817.41498
162160.1626,-61835.58695
161906.7385,-61866.14178
160852.3397,-61889.65582
160938.0363,-61906.62079
161961.4779,-61919.87537
161998.1571,-61939.63432
160941.5231,-61960.68966
160763.2233,-61966.3223
161766.3696,-61970.63619
162072.6332,-61979.1969
161079.5228,-61980.4933
160648.3353,-61966.14348
161563.751,-61941.46716
162108.9771,-61921.14942
161239.0919,-61897.38952
160574.2169,-61855.41294
161338.5125,-61801.81346
162093.1744,-61760.41803
161408.7863,-61722.10714
160564.1586,-61673.02271
161129.926,-61628.16276
162040.9607,-61593.13757
161599.7149,-61571.16581
160627.6599,-61547.18239
160953.146,-61518.75097
161960.2933,-61494.38757
161779.6688,-61487.68204
160736.4906,-61482.31762
160789.7771,-61470.98529
161822.4054,-61461.82107
161910.4265,-61463.25159
161171.2097,-61456.92604
161583.3758,-61442.46446
162846.16,-61434.03786
163305.6224,-61436.38479
162380.819,-61443.09031
161938.9697,-61437.94941
162857.4029,-61427.86877
163465.3704,-61429.45575
162642.9826,-61437.7706
161957.3652,-61436.02716
162698.8173,-61428.69579
163497.2663,-61433.47906
162866.9695,-61439.49168
162007.0308,-61436.5636
162535.1802,-61435.51307
163478.1779,-61435.93775
163088.5199,-61440.43046
162104.1044,-61440.74338
162386.4964,-61430.32747
163410.2733,-61437.92706
163287.0928,-61449.25939
162253.7717,-61448.56649
162263.5618,-61440.11753
163309.7575,-61435.35661
163464.074,-61439.067
162440.1852,-61451.47222
162186.3141,-61448.79001
163181.2126,-61442.24095
163592.3953,-61446.1078
162654.0914,-61454.91439
162147.8915,-61450.30993
163029.2878,-61447.4489
163672.951,-61454.71322
162886.1249,-61459.18357
162162.3307,-61455.71905
162872.8703,-61447.82888
163707.5962,-61448.16416
163126.4285,-61456.59077
162235.3539,-61458.42361
162725.2147,-61448.38768
163689.0219,-61447.20303
163352.874,-61450.51109
162358.2214,-61455.7861
162593.0041,-61448.38768
163633.299,-61442.17389
163602.8783,-61444.1632
162629.7057,-61444.99021
162671.0117,-61443.09031
163790.4765,-61440.74338
164062.4972,-61446.95716
163113.3304,-61449.37115
162871.2163,-61446.21956
163901.5199,-61438.93289
164412.302,-61441.86097
163547.3342,-61450.73461
163042.4306,-61463.02807
163932.723,-61459.47414
164645.9001,-61446.7113
163919.8931,-61437.88236
163200.3904,-61433.74728
163900.5812,-61427.44409
164794.5839,-61426.3265
164290.0827,-61436.40714
163412.0167,-61444.49847
163886.4325,-61453.97561
164857.7499,-61473.60044
164150.8537,-61486.51975
162695.1739,-61487.36912
162679.103,-61481.28944
163599.682,-61472.19228
163491.0078,-61476.8638
162382.3836,-61476.48382
162242.6182,-61464.05625
163235.4827,-61443.20207
163438.9059,-61436.89888
162399.8403,-61445.70547
162019.5478,-61440.72103
162949.0004,-61434.46254
163407.9264,-61437.10005
162478.6973,-61445.16903
161864.002,-61441.6151
162670.7882,-61431.95914
163366.8886,-61435.53542
162625.28,-61446.59954
161818.1138,-61443.47029
162433.4127,-61426.19239
163303.5661,-61427.71231
162781.2058,-61439.26816
161830.0273,-61443.58205
162215.3714,-61442.64328
163195.9648,-61464.52564
162932.0801,-61535.71594
161889.0359,-61608.60498
162003.6557,-61718.59792
163023.3646,-61899.55764
163025.0186,-62065.11701
161968.9211,-62150.72419
161825.7805,-62125.95846
162852.0161,-61813.8834
163150.2555,-61286.40458
162166.287,-60880.83218
161781.2111,-60546.98653
162730.2662,-60339.69645
163266.2163,-60327.00066
162391.6373,-60513.3695
161748.3093,-60823.94699
162522.7749,-61079.04745
163247.6644,-61278.46971
162553.1733,-61395.79402
162105.1549,-61429.65691
163285.3494,-61438.19528
164405.2612,-61460.61408
164031.3612,-61487.23501
163111.1399,-61499.23789
163484.5929,-61494.36521
164499.6526,-61502.03186
164300.8786,-61519.06389
163272.5866,-61534.12897
163363.9381,-61538.64402
164407.9881,-61541.05801
164482.1736,-61552.99384
163448.8524,-61565.80139
163273.2571,-61569.78
164288.451,-61573.60215
164624.8,-61586.81203
163646.3524,-61601.00539
163211.2087,-61602.63706
164133.017,-61607.04036
164710.899,-61620.60787
163868.2382,-61635.80705
163206.9842,-61641.99849
163968.8434,-61647.3182
164745.9465,-61662.6962
164095.2202,-61686.05378
163252.537,-61704.11398
163812.4259,-61704.47161
164741.6326,-61718.3744
164325.1079,-61746.55995
163357.4114,-61766.78828
163667.2737,-61779.37231
164686.6026,-61798.99714
164538.12,-61828.45674
163504.7541,-61853.78127
163546.7754,-61867.19231
164591.1383,-61879.1952
164712.7318,-61908.096
163682.8975,-61934.94045
163459.0001,-61947.39037
164464.8286,-61954.60998
164846.9317,-61966.72463
163896.2002,-61984.87425
163424.5561,-61979.68864
164329.3323,-61968.69158
164956.4552,-61962.85778
164190.7292,-61955.3923
163558.4877,-61931.14065
164365.2069,-61891.9804
165250.1348,-61851.94842
164710.7649,-61820.58892
163911.7347,-61772.28681
164491.2484,-61722.04008
165496.0263,-61679.77293
165178.6539,-61645.93239
164241.11,-61611.15308
164554.0568,-61571.05405
165622.0678,-61541.28153
165552.7551,-61529.47981
164545.5631,-61517.9016
164575.6709,-61498.29912
165652.4438,-61477.80257
165862.1032,-61472.59462
164884.192,-61475.0086
164647.8894,-61467.11844
165666.436,-61458.893
166055.8034,-61460.59173
164662.1945,-61471.99112
163740.6097,-61462.51398
164426.3166,-61452.79097
164962.6467,-61452.07571
164105.0326,-61461.08347
163304.9519,-61456.88134
163941.239,-61448.27592
164736.6035,-61450.66755
164124.1433,-61459.49649
163194.2884,-61457.28367
163630.885,-61451.91925
164564.0033,-61449.46056
164206.666,-61456.59077
163170.8861,-61454.62381
163359.5348,-61449.84054
164371.823,-61447.65007
164295.3577,-61455.16025
163234.0745,-61462.58103
163170.0368,-61459.27298
164189.2763,-61455.27201
164390.7326,-61459.34003
163365.5922,-61462.134
163034.004,-61456.36725
163994.7044,-61452.25453
164449.5624,-61462.20105
163522.1885,-61470.80648
162940.1938,-61463.96684
163766.6048,-61458.66948
164439.4817,-61460.90465
163679.9024,-61466.53729
162906.8003,-61467.78899
163553.1233,-61462.64809
164408.8822,-61463.13983
163870.004,-61468.39249
162944.1724,-61469.06304
163362.7311,-61460.47997
164337.4907,-61460.34586
164050.4496,-61468.63836
163032.8417,-61467.99016
163195.0484,-61460.99406
164222.6028,-61451.82984
164194.0596,-61459.49649
163165.924,-61467.16314
163515.5053,-61454.57911
165087.2129,-61448.34297
165533.9572,-61453.86385
164609.2879,-61458.55772
164279.3315,-61451.71809
165254.2252,-61446.17485
165772.2045,-61450.39933
164890.5623,-61457.73071
164293.7707,-61458.66948
165107.5307,-61451.11459
165826.1616,-61457.39543
165116.3149,-61476.8191
164317.3741,-61473.75691
164940.9208,-61446.19721
165826.5863,-61432.6744
165332.9257,-61443.47029
164393.2583,-61447.91829
164780.4799,-61439.067
165778.843,-61442.19624
165547.9718,-61461.73167
164524.6866,-61481.49061
164649.7893,-61483.54697
165691.537,-61481.20004
165726.1375,-61486.34094
164687.519,-61491.52654
164547.8206,-61484.91043
165572.2458,-61479.09897
165876.8107,-61479.27779
164894.8985,-61473.04165
164493.2824,-61457.37308
165431.6533,-61440.65397
165980.8804,-61441.48099
165121.8358,-61445.97369
164491.5389,-61441.6151
165276.1075,-61440.27399
166030.6354,-61446.19721
165354.9868,-61452.65686
164533.9402,-61450.84637
165118.8183,-61441.27982
166028.0873,-61442.8668
165588.0485,-61449.86289
164634.2548,-61449.81819
164974.0237,-61438.44115
165980.0757,-61436.45184
165806.1344,-61447.31479
164831.6207,-61457.57424
164979.2764,-61480.08245
166094.8296,-61546.95887
166249.0566,-61629.70503
165278.5886,-61769.73871
165147.2497,-61953.02301
166210.7904,-62091.11209
166606.7292,-62154.54634
165695.6051,-62084.47362
165317.0559,-61690.61353
166289.8485,-61139.91125
166925.9792,-60765.60894
166136.7838,-60485.2063
165512.7454,-60304.91713
166307.3947,-60316.6071
167115.7455,-60547.79119
166501.7878,-60873.09848
165688.2513,-61133.27278
166263.7417,-61307.32582
167222.1845,-61396.62104
166739.2751,-61440.60927
165260.2825,-61466.96198
165193.6743,-61483.63638
166040.6266,-61496.62274
165787.0684,-61515.77819
164671.694,-61521.76845
164637.8982,-61522.17078
165626.3594,-61536.05122
165711.1172,-61550.71396
164645.3413,-61561.42045
164373.857,-61570.27174
165340.7935,-61568.57301
165694.6216,-61576.06084
164709.3343,-61596.75856
164191.5338,-61598.88197
165053.5065,-61600.24543
165651.438,-61613.58942
164832.4925,-61626.50873
164113.2357,-61632.23077
164818.3661,-61635.24826
165608.1874,-61640.65738
164987.5912,-61662.6962
164097.7906,-61676.64369
164583.1587,-61683.57273
165519.2274,-61696.40263
165149.3061,-61714.5746
164146.0257,-61733.77475
164381.4119,-61745.42001
165384.8264,-61759.97099
165268.4409,-61784.3344
164215.2714,-61803.75806
164193.4337,-61817.37027
165216.2496,-61841.48781
165381.9877,-61871.30503
164359.7307,-61897.14365
164071.1697,-61913.25926
165044.9011,-61925.15039
165467.7067,-61946.11632
164532.8897,-61969.20567
164000.9182,-61978.72752
164856.8335,-61983.46609
165502.1507,-61993.36791
164711.346,-61999.96167
164010.9317,-61991.69153
165208.0018,-61974.21246
166538.5788,-61958.78976
166141.9247,-61942.67415
165316.8548,-61911.64993
165811.0965,-61864.01836
166788.2924,-61820.81244
166480.1289,-61781.24985
165488.6056,-61738.78154
165698.8237,-61690.9041
166733.173,-61647.60877
166684.8039,-61620.83138
165648.5993,-61593.38344
165589.7919,-61559.52055
166621.1908,-61533.8384
166839.3662,-61523.15426
165838.5445,-61515.82289
165516.3664,-61496.93567
166484.7334,-61481.53531
166957.9869,-61480.84241
166059.2232,-61482.20587
165498.6638,-61474.98625
166333.9038,-61463.20688
167026.0703,-61464.23506
166290.0497,-61470.60531
165524.7036,-61469.10774
166169.9091,-61463.74332
167033.1111,-61458.9377
166519.2445,-61468.83952
165609.305,-61463.94449
166028.3778,-61456.56841
167007.4513,-61459.04946
166743.6113,-61467.2749
165737.5816,-61469.44302
165896.5919,-61462.40222
166934.3611,-61457.41778
166941.0443,-61463.87744
165907.7008,-61467.36431
165800.1218,-61464.81621
166826.0222,-61458.08833
167096.6348,-61465.71028
166111.884,-61469.1301
165748.1317,-61465.79969
166696.3374,-61463.58686
167210.0028,-61468.54895
166350.243,-61476.03678
165809.0625,-61471.96877
166685.7203,-61464.36917
167487.2538,-61464.0786
166864.5566,-61468.81717
166142.4611,-61475.5674
166821.9318,-61467.09609
167763.1638,-61469.28656
167339.8888,-61476.48382
166464.1474,-61470.85118
166887.3554,-61461.28463
167922.9787,-61464.30212
167738.8451,-61471.70055
166753.3567,-61476.23795
166905.8179,-61468.50425
167973.896,-61465.375
168058.0503,-61469.55478
167072.3831,-61473.64515
166962.0996,-61471.52173
168007.8036,-61466.53729
168350.0759,-61468.68306
167260.5177,-61477.66846
166330.931,-61475.03096
166930.6284,-61464.70445
167324.3543,-61471.36527
166372.93,-61479.94834
165659.8199,-61475.09801
166367.9902,-61468.95128
167070.8185,-61473.6675
166367.7891,-61477.5567
165509.0351,-61475.32153
166046.3039,-61467.52077
166923.8558,-61465.08443
166458.783,-61474.98625
165466.4773,-61476.17089
165764.9625,-61475.16507
166746.2041,-61482.56349
166545.9548,-61492.30885
165508.208,-61477.73552
165559.4382,-61456.83664
166578.119,-61453.1486
166651.6339,-61460.16705
165614.2,-61467.20785
165405.7253,-61467.43136
166390.7443,-61479.05427
166735.4306,-61497.56151
165770.4611,-61507.68685
165302.125,-61501.62953
166184.9518,-61497.74033
166758.4082,-61498.0309
165927.2585,-61500.71311
165238.6907,-61504.93759
165969.5704,-61494.61108
166745.6453,-61484.21752
166113.1356,-61480.79771
165257.2427,-61466.11261
165789.0801,-61454.80263
166714.0176,-61456.27784
166318.1682,-61463.4751
165342.4699,-61464.7715
165625.063,-61461.64226
166630.2433,-61457.97657
166490.3884,-61463.69862
165449.5794,-61467.90075
165539.277,-61461.61991
167142.5229,-61448.99117
167718.5497,-61449.41586
166849.1562,-61454.95909
166666.7884,-61456.76958
167683.1445,-61452.63451
168101.9715,-61468.05721
167176.5869,-61507.70921
166687.5755,-61581.82759
167561.8863,-61655.36483
168181.0073,-61788.02243
167389.0403,-61988.45053
166677.4278,-62124.61735
167383.4523,-62162.36945
168199.0898,-62071.15198
167626.8181,-61660.93041
166772.9144,-61125.94141
167279.5167,-60748.37574
168238.3842,-60476.53383
167905.2091,-60302.36903
166928.3485,-60323.62554
167165.8805,-60563.3033
168179.7332,-60884.45316
168092.4944,-61156.58565
167066.3034,-61339.95936
167040.5766,-61414.65889
168066.9687,-61443.6044
168257.1373,-61472.79578
167252.2923,-61500.69076
166959.7974,-61516.11346
167931.2936,-61515.55467
168379.1555,-61528.89866
167474.491,-61544.23196
166945.4029,-61557.01715
167794.7244,-61558.31356
168462.1922,-61567.94716
167713.7664,-61582.40874
166978.394,-61587.19201
167646.89,-61589.22602
168496.1445,-61608.31441
167955.8805,-61624.27355
167061.4755,-61626.91106
167509.9409,-61626.24051
168476.7879,-61633.10249
168180.6497,-61648.5252
167210.7851,-61660.81866
167461.1917,-61670.47461
168565.0326,-61679.61647
168612.1724,-61699.95656
167659.0717,-61713.85935
167659.1611,-61716.67566
168745.0759,-61730.01966
169037.2803,-61751.87966
168105.5254,-61771.16922
167828.7438,-61787.46364
168829.7443,-61805.41209
169362.6546,-61828.05441
168515.5458,-61853.42364
167973.9407,-61872.55673
168825.3857,-61895.2661
169557.003,-61920.1883
168875.2972,-61949.55849
168145.4457,-61964.82473
168818.4343,-61976.84997
169721.1319,-61997.50298
169249.9571,-62022.0899
168157.8956,-62035.65741
168032.2788,-62043.05584
168721.7407,-62045.84981
168326.0254,-62043.2123
167221.134,-62038.31727
167288.5245,-62018.02188
168255.148,-61993.52437
168224.1462,-61968.78099
167158.9961,-61929.55368
166999.4717,-61880.04457
167980.6015,-61826.31097
168235.0315,-61778.96998
167224.4197,-61738.62508
166809.8172,-61694.52509
167715.331,-61650.11217
168219.3405,-61620.33965
167342.0569,-61604.4252
166714.2411,-61575.01031
167485.7116,-61547.02592
168204.9013,-61533.25725
167508.488,-61524.58477
166689.2072,-61519.33211
167266.3292,-61505.6752
168149.3796,-61496.37687
167674.8073,-61504.17763
166721.7289,-61501.09309
167065.007,-61494.36521
168040.0348,-61489.89487
167822.1053,-61489.0455
166798.8425,-61488.06202
166881.3875,-61484.03871
167904.4715,-61481.62472
167962.3625,-61481.75883
166928.6837,-61486.63151
166751.9262,-61485.87155
167754.6254,-61476.37206
168074.7918,-61481.49061
167107.833,-61486.13977
166678.2101,-61480.01539
167582.7405,-61480.08245
168138.7178,-61490.07368
167295.4088,-61495.21458
166631.8079,-61489.85016
167504.5764,-61480.77535
168877.7335,-61477.06496
168607.7468,-61484.5528
167916.765,-61486.16212
168531.125,-61480.61889
169471.6641,-61480.64124
169070.9196,-61488.88904
168119.8306,-61493.5829
168438.6558,-61485.26805
169442.428,-61479.34484
169285.7199,-61486.11742
168268.112,-61489.67135
168319.7893,-61485.02219
169350.8082,-61486.65386
169462.4775,-61491.92887
168450.0999,-61495.05812
168236.7302,-61485.201
169230.2205,-61483.74814
169603.6288,-61486.72092
168662.8215,-61494.27581
168199.1793,-61497.06978
169087.4376,-61486.67621
169688.6995,-61485.64803
168884.8861,-61489.89487
168205.2366,-61487.21266
168931.6459,-61481.82589
169730.6761,-61480.26126
169127.246,-61485.31276
168275.354,-61481.24474
168790.3829,-61474.13689
169724.3058,-61475.14271
169359.9948,-61482.87642
168388.8785,-61490.02898
168656.4959,-61482.40703
169671.6898,-61482.6976
169564.7144,-61487.90556
168545.3631,-61496.39922
168548.7158,-61499.2826
169578.9077,-61491.90652
169745.4729,-61477.17672
168741.8796,-61473.24282
168483.1135,-61469.89005
169461.5164,-61469.51007
169876.5883,-61473.064
168958.0657,-61485.04454
168482.6888,-61497.51681
169408.7216,-61504.66937
170123.7315,-61515.10763
169430.8498,-61515.04058
168787.9242,-61507.73156
169550.2528,-61500.40019
170438.6229,-61503.28356
169927.6397,-61508.35741
169098.524,-61498.79086
169615.4975,-61484.57515
170625.9976,-61470.13592
170347.2042,-61470.5159
169399.4679,-61472.01347
169654.6354,-61464.7715
170704.8322,-61461.61991
170679.0382,-61474.24864
169693.0357,-61477.82492
169688.0737,-61467.54312
170748.8651,-61465.59852
170990.9345,-61470.78412
170023.3945,-61475.74621
169474.5698,-61471.34292
169915.4133,-61468.34778
170114.5226,-61474.53922
169072.7748,-61480.99887
168423.9484,-61480.46243
169186.5229,-61483.74814
169804.4368,-61525.27768
169016.5378,-61610.90721
168220.5922,-61684.31034
168828.4703,-61823.27113
169636.307,-62008.83532
169073.8701,-62150.07599
168132.4817,-62194.01952
168526.7664,-62088.07225
169475.8662,-61700.4036
169191.7085,-61225.49608
168186.7964,-60836.2181
168350.4112,-60481.83119
169371.8188,-60341.03755
169345.2426,-60410.99851
168299.3151,-60644.99893
168181.4096,-60943.55118
169177.2469,-61181.99959
169415.6729,-61354.89033
168415.0077,-61447.87359
168043.7899,-61475.96973
168967.5205,-61485.53628
169444.6632,-61519.7568
168551.9121,-61546.42243
167951.1196,-61544.23196
168741.6114,-61545.57306
169443.3891,-61559.29703
168730.1896,-61577.06667
167937.2168,-61581.55937
168541.0492,-61581.44761
169410.6885,-61585.73915
168923.5546,-61607.5321
167986.5024,-61619.64674
168357.072,-61618.39504
169335.0949,-61625.18997
169097.63,-61638.981
168073.4283,-61643.429
168173.1842,-61643.56311
169375.5739,-61648.27933
170046.238,-61663.14324
169351.2105,-61679.52707
169319.4934,-61683.8186
170375.3674,-61695.57562
170702.4852,-61708.22671
169744.2659,-61730.26553
169353.1998,-61743.02837
170274.7846,-61755.21007
170818.3567,-61772.15269
169968.2751,-61796.49374
169340.5711,-61816.00682
170115.4167,-61831.94361
170860.6015,-61857.02227
170189.7139,-61884.71608
169378.5467,-61903.5139
169950.1255,-61918.17664
170852.756,-61940.97542
170412.1361,-61965.33882
169467.8866,-61988.04819
169802.604,-62002.06274
170800.4529,-62013.57389
170625.4835,-62025.59913
169608.345,-62033.39988
169681.4799,-62028.4825
170714.4434,-62021.55346
170806.8008,-62018.22305
169791.294,-62004.18615
169601.3042,-61969.80917
170606.7527,-61928.50315
170956.334,-61891.39925
170010.5423,-61849.71325
169567.0837,-61803.71336
170470.2059,-61752.21494
171052.9829,-61715.71454
170238.5077,-61685.58439
169578.6842,-61650.38039
170329.144,-61607.30858
171109.287,-61582.27463
170484.5557,-61567.03074
169644.8677,-61550.40104
170179.5885,-61536.27474
171107.1859,-61522.84134
170718.2209,-61521.32142
169757.1629,-61519.17565
170077.9775,-61509.5197
171155.041,-61498.52264
171099.0499,-61500.31078
170153.3923,-61499.52847
170254.5563,-61495.14753
171356.542,-61487.43617
171553.1032,-61486.11742
170594.6828,-61492.08534
170414.9077,-61489.33607
171456.2978,-61481.91529
171898.5494,-61481.49061
171005.2396,-61487.50323
170557.5789,-61489.40313
171471.4746,-61480.32832
172126.2913,-61481.42355
171368.679,-61492.15239
170705.7933,-61485.69274
171456.2531,-61481.75883
172301.909,-61489.06785
171743.9201,-61496.0416
170893.3021,-61494.16405
171087.2035,-61490.3419
171532.9419,-61492.15239
170949.4497,-61504.13293
169830.3649,-61508.29035
169979.451,-61500.48959
170926.2932,-61494.09699
170780.8728,-61506.59162
169706.6703,-61510.34671
169644.5101,-61504.80348
170632.0325,-61507.39628
170780.0681,-61509.74321
169742.9025,-61515.10763
169416.947,-61511.28549
170356.0555,-61502.85888
170760.1304,-61504.44585
169817.0879,-61515.39821
169270.6995,-61514.0571
170105.0678,-61507.73156
170747.904,-61507.32923
169971.5832,-61513.27479
169217.6141,-61510.52553
169873.9731,-61500.35548
170695.3774,-61501.49542
170130.3253,-61505.89871
169221.0116,-61504.55761
169657.1165,-61498.05325
170597.4767,-61498.14266
170271.633,-61504.53526
169262.4741,-61504.44585
169447.7701,-61498.20971
170456.5266,-61496.71215
170401.6084,-61503.28356
169360.2406,-61504.02117
169282.613,-61501.29426
170300.1985,-61511.93369
170521.4584,-61518.84037
169520.525,-61510.23495
169184.9359,-61493.51585
170134.9744,-61479.79188
170604.3164,-61488.77728
169708.5926,-61494.92401
169121.9487,-61488.79963
169933.1382,-61494.43227
170867.5752,-61511.79958
170769.4064,-61530.32917
170283.8147,-61528.56338
171026.7867,-61512.60424
171933.5746,-61516.78401
171448.3629,-61526.7976
170544.6596,-61523.44483
170959.4185,-61510.8608
171942.6494,-61499.2826
171685.9396,-61494.11935
170681.3181,-61491.12421
170834.5617,-61478.58488
171862.8313,-61475.74621
171875.5271,-61487.83851
170843.7259,-61492.04063
170725.7757,-61484.5528
171743.7189,-61478.83075
172020.5676,-61486.18448
171037.0908,-61493.5382
170663.4367,-61489.29137
171605.8757,-61481.75883
172129.4206,-61482.78701
171263.7822,-61486.16212
170656.53,-61488.3973
171454.9344,-61484.19517
172189.368,-61498.58969
171494.8993,-61544.72369
170686.1685,-61616.74102
171284.2788,-61681.67283
172169.3185,-61825.05927
171697.0037,-62015.94317
170754.8107,-62146.47736
171113.9138,-62188.34218
172112.4333,-62075.17529
171920.5435,-61660.28221
170921.5323,-61148.1814
171035.0792,-60768.3582
172083.5995,-60461.28994
172161.0483,-60331.64982
171138.6125,-60408.07043
170968.3369,-60650.74332
171968.5327,-60956.31402
172288.2968,-61209.40282
171324.7131,-61385.08754
170907.3166,-61458.9377
171857.6457,-61478.56253
172488.479,-61501.78599
171732.6995,-61529.52451
171157.2091,-61541.39328
171985.6542,-61547.62942
172819.0837,-61557.24067
172226.3601,-61573.22217
171452.2298,-61583.01223
172063.1924,-61582.94518
173032.0958,-61592.37761
172668.4329,-61605.31927
171747.921,-61617.45627
172087.6005,-61616.69631
173125.8614,-61623.91593
173003.6867,-61637.48343
172013.7056,-61650.33569
172098.754,-61648.27933
173173.4929,-61647.56407
173324.0096,-61665.1996
172335.9954,-61682.14222
172128.7277,-61686.88079
172749.8156,-61701.96822
172650.9315,-61719.78256
171489.4454,-61736.09933
170891.4245,-61744.81651
171695.752,-61753.86897
172235.0773,-61771.01276
171368.1202,-61798.70657
170634.7594,-61813.43637
171321.2933,-61822.8688
172078.5257,-61840.77255
171430.9286,-61873.20493
170538.9599,-61894.01441
171012.6604,-61909.39241
171913.3463,-61929.01724
171518.4133,-61951.97248
170522.7325,-61973.3631
170767.4617,-61987.10942
171760.7733,-62004.27556
171639.3809,-62022.0899
170593.6546,-62035.99269
170576.3543,-62033.82457
171591.0118,-62029.89066
171734.4429,-62030.06947
170710.7107,-62022.82751
170436.79,-61998.12883
171404.3077,-61970.59148
171803.398,-61939.27669
170856.6005,-61907.60427
170325.5901,-61860.50914
171172.4083,-61807.20023
171804.918,-61766.16243
171022.6069,-61732.05367
170295.0129,-61687.88662
170980.1162,-61644.74775
171800.5147,-61620.47376
171226.209,-61605.14046
170334.7543,-61585.51563
170796.6084,-61559.47585
171747.5857,-61545.03662
171415.9753,-61546.0201
170415.4888,-61538.91224
170619.4261,-61525.5459
171632.6754,-61518.34864
171889.2064,-61511.509
171470.67,-61510.59258
171664.5267,-61504.87053
172785.8913,-61498.92497
173038.9354,-61507.28452
172062.0971,-61509.89968
171760.8403,-61506.68103
172727.1286,-61496.17571
173182.3442,-61498.27677
172279.5796,-61505.7199
171729.9949,-61506.54692
172571.6499,-61498.34383
173250.7406,-61502.34479
172507.7462,-61513.05127
171754.5818,-61510.2573
172409.3538,-61500.75781
173262.5646,-61504.80348
172735.7117,-61509.58675
171826.8897,-61506.4128
172254.4786,-61499.9755
173225.8407,-61498.99203
172947.6286,-61512.31367
171944.7281,-61518.86273
172116.613,-61511.4643
173146.5367,-61507.35158
173137.5737,-61514.6606
172110.6451,-61521.47788
172018.3995,-61512.24661
173039.1142,-61508.9162
173296.6957,-61518.05806
172311.252,-61526.86465
171958.8544,-61520.96379
172905.0932,-61512.44778
173410.1979,-61515.88994
172541.3409,-61525.30003
171951.3219,-61518.61686
172757.3705,-61511.4643
173476.4261,-61516.26992
172766.5347,-61527.06582
171983.4861,-61523.86952
172603.8811,-61513.3642
173484.4951,-61513.18538
172997.7859,-61522.21549
172073.6083,-61522.72958
172462.551,-61512.47013
173490.2842,-61507.86567
173327.2506,-61514.34767
172388.0973,-61516.26992
172593.3087,-61508.33505
173698.826,-61504.98229
173802.8286,-61512.42542
172836.3616,-61514.83941
172747.3569,-61513.02892
173814.2727,-61512.67129
174168.5032,-61520.80733
173242.6939,-61533.48077
172881.6462,-61532.36318
173838.5914,-61513.92299
174416.2723,-61500.17667
173592.454,-61504.75878
172997.2718,-61501.74129
173815.9491,-61489.02315
174606.9997,-61500.60135
173976.1217,-61518.08042
173193.386,-61533.48077
173756.2476,-61536.16298
174233.3903,-61545.86363
173361.2699,-61550.11047
172216.0783,-61551.13865
172428.3752,-61543.5614
173337.7559,-61542.19795
173086.9917,-61542.30971
172008.0953,-61535.35831
172037.1526,-61514.28062
173036.1415,-61497.02507
173087.5281,-61503.64119
172027.6531,-61513.27479
171800.1794,-61510.88315
172760.5445,-61503.30591
173073.0665,-61505.45168
172094.1048,-61516.98518
171627.2216,-61512.20191
172510.1826,-61503.44002
173077.5816,-61505.7646
172240.6205,-61512.82776
171550.5775,-61504.78113
172275.1316,-61495.61691
173040.8577,-61503.08239
172399.1838,-61510.19025
171536.8088,-61515.04058
172056.7774,-61539.98513
172964.303,-61616.91983
172552.0697,-61704.8963
171559.2052,-61830.78132
171824.3416,-62016.61372
172812.7134,-62161.34127
172660.1628,-62219.61227
171619.5773,-62144.77863
171648.6793,-61747.65518
172689.4212,-61200.93151
172836.4957,-60811.92175
171823.6934,-60527.20523
171584.7309,-60327.26888
172568.6547,-60331.73923
172954.1776,-60575.21678
172005.9496,-60910.53765
171494.2958,-61178.66918
172350.8146,-61361.28293
172974.6518,-61454.75792
172569.3476,-61488.75493
172434.4549,-61515.15234
173345.3108,-61535.51478
174244.0297,-61551.36216
173694.758,-61563.78973
172842.5977,-61570.67407
173337.2865,-61577.80428
174289.8061,-61589.58365
173947.2656,-61607.86737
172961.509,-61620.85374
173198.5269,-61621.90427
174216.2689,-61627.64867
174135.9814,-61633.57188
173105.2978,-61648.43579
173074.8994,-61648.5252
174103.8172,-61658.87405
174293.0695,-61676.42017
173286.8386,-61689.45124
172994.8801,-61692.91576
173969.6844,-61699.35306
174412.5842,-61714.37344
173498.3979,-61731.2043
172963.0289,-61739.29563
173809.8694,-61744.77181
174475.9961,-61762.98848
173723.7705,-61783.7309
172983.6372,-61797.58898
173653.1614,-61809.10013
174496.9397,-61829.70844
173955.871,-61853.5801
173056.1016,-61876.82591
173498.7108,-61890.05815
174468.5754,-61913.68394
174174.0241,-61949.98317
173179.1479,-61969.74212
173367.3943,-61990.93157
174398.905,-62005.84018
174369.4007,-62030.62827
173338.337,-62046.14038
173264.4422,-62051.95183
174288.912,-62065.00525
174530.1544,-62087.08877
173540.6427,-62096.16358
173204.0031,-62082.03728
174167.9444,-62064.69233
174705.3027,-62050.65543
173891.0063,-62032.17054
173392.7859,-61999.84992
174285.5146,-61954.25236
175059.6225,-61908.67715
174408.8515,-61864.68892
173692.791,-61819.33723
174377.7155,-61770.56572
175305.1117,-61728.79031
174862.9719,-61696.67085
173988.1693,-61664.35023
174424.453,-61624.76529
175440.6974,-61599.30665
175229.1605,-61584.01806
174252.501,-61571.88106
174424.1401,-61556.54777
175496.9344,-61543.04731
175564.0344,-61538.73343
174566.1407,-61542.30971
174470.7882,-61532.65375
175446.1065,-61522.08138
175262.5764,-61529.92684
173888.0335,-61532.60905
173319.3157,-61522.10373
174131.3322,-61515.15234
174581.0046,-61517.67808
173657.7211,-61527.95989
172982.8996,-61526.57408
173728.2856,-61518.4604
174428.3422,-61515.50996
173711.0971,-61526.99876
172865.3294,-61531.20089
173417.7081,-61518.32628
174277.0209,-61516.51579
173790.0882,-61529.07747
172817.8543,-61532.5867
173142.7593,-61518.70626
174120.2905,-61523.55659
173904.5961,-61531.55852
172862.2896,-61529.94919
172931.0436,-61523.33308
173951.7583,-61521.7461
174011.9069,-61527.13287
172972.439,-61532.81022
172777.2189,-61524.58477
173769.9045,-61518.92978
174094.653,-61525.50119
173113.3891,-61534.01721
172655.9159,-61525.07651
173548.2423,-61521.18731
174111.4615,-61527.40109
173270.4548,-61534.10662
172595.4768,-61534.03956
173336.8395,-61525.38944
174104.3537,-61527.80342
173461.8975,-61533.25725
172607.9714,-61530.6421
173148.4143,-61522.14843
174065.3946,-61521.32142
173652.8037,-61529.18923
172681.3969,-61527.28933
172967.2087,-61523.17661
173957.7709,-61523.33308
173829.8072,-61529.59156
173263.6375,-61525.00946
173831.3718,-61518.72862
175052.6935,-61516.78401
175259.1119,-61518.84037
174279.1443,-61530.79856
174063.5617,-61540.38746
175063.9588,-61532.27377
175457.3495,-61517.94631
174519.6714,-61517.99101
174032.314,-61504.75878
174918.2925,-61494.16405
175540.3415,-61501.62953
174742.0937,-61517.18635
174042.3276,-61524.40596
174755.5494,-61534.68776
175565.4425,-61552.01036
174970.8191,-61557.37478
174100.4868,-61550.98218
174598.7296,-61542.62263
175544.633,-61540.65568
175195.4764,-61540.16394
174212.6926,-61534.26308
174459.5676,-61520.47205
175485.3786,-61505.63049
175400.0396,-61504.40115
174368.9983,-61505.65285
174348.7253,-61505.13876
175384.1699,-61502.36714
175565.5543,-61509.96673
174560.1728,-61519.06389
174277.7362,-61510.41377
175255.4015,-61501.74129
175697.4743,-61507.46334
174783.735,-61511.68782
174258.4466,-61511.48665
175115.6584,-61507.46334
175777.4488,-61505.38462
175018.2048,-61509.89968
174286.498,-61516.0017
174961.5431,-61526.26115
175800.5382,-61570.83053
175244.7397,-61657.73411
174351.8769,-61737.90982
174800.2976,-61886.32541
175769.9163,-62065.16171
175511.8207,-62184.31886
174580.4011,-62221.3557
174861.8767,-62068.35801
175978.9498,-61630.26382
176030.6717,-61177.97627
175083.4271,-60788.00539
175084.3883,-60462.7875
176170.8395,-60366.51854
176456.2713,-60473.06931
175510.3231,-60727.85684
175216.5318,-61024.33038
176199.7627,-61250.61944
176711.1929,-61412.24491
175855.9481,-61487.95026
175314.4101,-61508.29035
176173.2311,-61519.77915
176908.8271,-61554.4467
176225.4225,-61580.53119
175486.362,-61582.27463
176156.8026,-61581.20174
176941.1924,-61593.27168
175910.5087,-61617.59038
174614.8005,-61627.76043
174881.7474,-61627.13458
175758.0251,-61633.39307
175425.6771,-61648.48049
174348.2559,-61660.77395
174442.1332,-61660.72925
175431.5332,-61662.67385
175407.4157,-61679.68353
174342.735,-61692.53578
174192.196,-61699.57658
175175.8293,-61702.30349
175419.5974,-61717.10035
174407.4657,-61734.86998
173999.9263,-61740.90496
174913.8221,-61744.45888
175419.8209,-61761.60267
174538.7151,-61781.07104
173903.8138,-61793.45391
174672.4903,-61801.61229
175390.0707,-61823.76287
174692.5398,-61852.50722
173871.0462,-61867.03585
174452.4597,-61881.63154
175330.2575,-61907.85014
174858.6804,-61932.45941
173899.6117,-61957.18044
174232.8539,-61972.02199
175213.9837,-61988.96462
174998.334,-62013.57389
173969.1256,-62035.54565
174051.313,-62047.68265
175071.469,-62053.82938
175129.3153,-62068.84975
174098.7657,-62078.30454
173918.566,-62069.54265
174919.9688,-62058.41149
175247.8689,-62050.87895
174280.9325,-62037.5126
173845.297,-62003.44855
174747.3687,-61958.6333
175302.0272,-61915.58384
174514.1729,-61879.39636
174385.4939,-61821.03596
175619.6455,-61768.41995
176559.4916,-61728.63385
175989.1422,-61701.0518
175187.5863,-61670.49696
175751.2302,-61639.0257
176683.9238,-61610.28136
176283.0676,-61597.31735
175322.7026,-61583.2134
175623.7806,-61569.7353
176637.3204,-61556.57012
176494.8057,-61556.3019
175468.8606,-61554.31259
175505.4281,-61540.9686
176537.2293,-61533.52547
176666.2883,-61537.1241
175652.3461,-61543.20378
175426.6829,-61534.44189
176418.4968,-61526.99876
176804.6009,-61526.55173
175864.1065,-61533.32431
175387.8355,-61528.00459
176271.3777,-61518.43804
176886.967,-61518.84037
176098.6881,-61526.887
175406.3651,-61528.51868
176124.5714,-61521.25436
176932.1623,-61523.08721
176336.0189,-61530.97737
175472.6157,-61532.83257
175975.4853,-61524.65183
176915.7337,-61525.88117
176563.7608,-61533.99486
175589.1354,-61536.38649
175843.2523,-61530.15036
176861.7543,-61530.06095
176771.632,-61536.96764
175747.788,-61541.63915
175738.0203,-61538.91224
176769.3075,-61531.31265
176950.6919,-61535.1795
175948.3279,-61543.36024
175674.072,-61543.44965
176652.3855,-61538.01817
177104.1142,-61540.07453
176243.5944,-61549.14934
175792.0221,-61541.77326
176727.3756,-61530.7315
177456.3777,-61538.55461
176765.5077,-61547.62942
176101.9738,-61543.53905
176837.2121,-61536.29709
177722.4753,-61535.02304
177226.2665,-61545.72952
176390.3783,-61541.92973
176889.8057,-61536.4312
177883.0949,-61533.30195
177614.3599,-61535.11244
176649.4127,-61538.91224
176887.5929,-61534.82187
177950.5078,-61535.35831
177949.636,-61540.85684
176946.378,-61543.49435
176918.7959,-61549.50697
177982.359,-61549.81989
177936.7838,-61553.08325
176293.0588,-61548.45644
175828.1202,-61536.72177
176714.2998,-61527.35639
177086.3446,-61524.13774
176113.6861,-61532.76551
175478.7624,-61530.41858
176258.883,-61537.23586
176904.6249,-61559.76642
176138.3848,-61576.2173
175337.3877,-61571.45638
175949.5125,-61560.25816
176777.4211,-61560.28051
176232.3068,-61568.46125
175288.4597,-61561.4428
175673.1556,-61546.46713
176626.8598,-61532.78786
176348.5135,-61531.13383
175326.4353,-61533.05608
175461.9539,-61524.11539
176473.9962,-61520.62851
176465.3237,-61527.4458
175422.4584,-61535.93946
175294.0253,-61529.27864
176294.3329,-61521.38847
176553.7025,-61523.89187
175558.0664,-61530.57504
175163.1782,-61525.79177
176080.7843,-61521.67905
176583.1621,-61524.45066
175702.7269,-61527.24463
175083.9189,-61525.5906
175869.5156,-61528.80925
176586.0902,-61557.91122
175888.2464,-61631.11319
175082.5778,-61700.26948
175666.2936,-61805.12152
176540.6938,-61986.28241
176068.5132,-62151.99824
175117.1559,-62227.92712
175467.9218,-62198.62398
176455.7572,-61902.2175
176238.0289,-61395.68226
175311.3926,-60980.05157
176009.0799,-60611.71718
177477.0531,-60401.52137
177689.35,-60398.66035
176726.258,-60586.43735
176586.0008,-60896.85838
177595.7409,-61158.06087
177921.3164,-61368.07786
176957.9785,-61488.57611
176539.4645,-61519.68974
177450.5663,-61525.5459
178009.0917,-61553.32912
177169.0014,-61579.12303
176519.5044,-61588.9578
177283.8893,-61590.72358
178045.2568,-61602.07827
177390.0601,-61619.40087
176549.2992,-61622.79834
177125.1919,-61627.02282
178043.6922,-61635.87411
177618.5843,-61650.5592
176642.886,-61658.60583
176977.6257,-61659.85753
177990.0256,-61667.77005
177830.8142,-61682.92453
176764.6583,-61690.54648
176834.0828,-61694.99447
177889.711,-61701.34237
177997.7593,-61715.7816
176937.1691,-61730.80197
176719.776,-61734.60176
177762.8202,-61738.53567
178133.0768,-61757.13232
177145.1968,-61777.40535
176651.5138,-61789.31883
177621.1324,-61800.58411
178224.9201,-61823.65111
177369.9212,-61844.55
176635.9793,-61856.7317
177454.1873,-61873.71902
178258.9171,-61891.91334
177599.2277,-61921.75292
176633.4312,-61944.41759
177279.6648,-61958.00745
178248.8588,-61978.34754
177857.301,-62005.28139
176808.2442,-62022.78281
177259.66,-62036.79735
178412.7195,-62044.95574
178329.6157,-62061.54073
177121.2804,-62073.09658
177328.1681,-62066.2346
178574.0991,-62058.38913
178742.6759,-62055.86339
177446.2748,-62047.68265
177312.4325,-62015.09381
178640.2826,-61972.69255
179059.1319,-61938.65084
177791.6986,-61903.42449
177306.9563,-61855.94938
178607.0008,-61801.34407
179295.0099,-61761.69208
178264.5498,-61731.8078
177425.8229,-61698.39194
178562.6997,-61659.03052
179456.5459,-61636.20938
177932.6264,-61624.56413
176108.2099,-61611.51071
177295.1099,-61588.37665
178307.2192,-61577.5137
177778.3323,-61578.58659
176483.4957,-61571.7246
176868.3704,-61561.4875
177946.9985,-61555.47488
177824.4439,-61554.51376
176611.3924,-61557.68771
176605.8939,-61550.78102
177693.418,-61545.23779
177856.2057,-61547.89764
176728.7167,-61549.48462
176387.0703,-61543.38259
177422.9395,-61538.9793
177861.7713,-61543.20378
176894.142,-61544.90251
176279.1337,-61541.92973
177192.5154,-61534.97833
177857.8374,-61537.7276
177046.7373,-61549.46226
176196.0746,-61549.52932
176953.7988,-61538.84519
177813.4245,-61537.79465
177241.9351,-61549.59638
176230.4069,-61551.65274
176723.5981,-61545.68482
177704.348,-61547.11533
177395.8716,-61552.27858
176289.572,-61553.03854
176509.4461,-61547.11533
177567.7565,-61545.66247
177543.1025,-61549.52932
176419.7932,-61557.84417
176340.7351,-61555.85486
177425.51,-61550.33398
177667.8476,-61554.37965
176590.7394,-61559.81112
176210.4692,-61557.21832
177245.2879,-61552.65856
177730.8125,-61556.41366
176781.3104,-61563.27564
176258.2572,-61558.2018
177787.0494,-61542.66733
178875.3782,-61544.58958
178155.8309,-61554.02202
177214.1519,-61553.99967
178155.1603,-61545.52836
179106.8976,-61542.8238
178393.1617,-61552.5021
177085.0929,-61553.86556
177917.8966,-61542.01913
179070.3078,-61535.62653
178632.1913,-61548.92582
177098.8839,-61557.08421
177662.4608,-61552.21153
178982.0184,-61550.75867
178849.6737,-61563.11918
177164.151,-61571.90342
177363.5286,-61555.89957
178849.6067,-61536.20768
179055.8015,-61531.55852
177429.7792,-61540.14159
177140.3911,-61537.63819
178682.8403,-61528.69749
179205.357,-61538.24169
177739.7085,-61563.07448
176953.8211,-61580.64295
178465.4472,-61581.49231
179275.2509,-61575.5691
178021.4969,-61579.65947
176804.9809,-61577.5137
178219.0863,-61566.42724
179301.0225,-61562.53804
178357.6671,-61564.50499
176800.7564,-61552.47975
177945.8362,-61532.83257
179268.0984,-61531.78203
178686.5731,-61536.34179
176876.7523,-61536.4312
177643.1936,-61536.49825
179184.5699,-61533.41371
178989.5062,-61539.24752
177054.2028,-61541.72856
177341.6239,-61537.79465
179044.268,-61530.35152
179237.6777,-61535.62653
177397.7268,-61543.22613
177208.2734,-61536.23003
179025.9396,-61526.30586
179631.2695,-61531.42441
177906.2737,-61551.76449
177167.772,-61574.58563
179051.5994,-61635.62824
179950.6089,-61714.19462
178297.5186,-61839.94554
176855.2723,-62020.36882
178804.7914,-62161.31892
180081.2772,-62228.53061
178295.2387,-62190.5103
176428.3316,-61847.81335
178403.4659,-61308.93514
180284.0969,-60910.09061
179646.2005,-60602.55296
177784.4119,-60416.63115
178698.1513,-60417.257
180363.3562,-60627.07283
179985.7011,-60951.5084
176834.6193,-61223.46207
176832.63,-61411.39554
179134.9714,-61504.33409
179089.9773,-61540.94625
176652.7878,-61561.97924
176347.3959,-61580.30767
178534.4694,-61592.06469
179072.3195,-61602.54766
176950.3119,-61616.29398
176039.97,-61619.35617
178111.5297,-61619.31147
179043.9551,-61631.8955
177283.2188,-61652.03442
175811.6246,-61661.15393
177640.1761,-61661.53391
178953.3411,-61668.30649
177681.281,-61681.33756
175731.1136,-61689.563
177164.0393,-61689.63005
178823.254,-61695.3521
177976.9052,-61711.9818
175753.5101,-61722.35301
176682.605,-61728.81266
178637.131,-61737.44044
178317.1434,-61749.1751
175936.5262,-61764.24018
176240.264,-61769.87282
178393.5193,-61776.80186
178508.8543,-61796.62785
176098.5763,-61821.46064
175765.2671,-61832.14478
178067.1168,-61841.46545
178666.233,-61863.72779
176420.7767,-61894.14852
175446.4642,-61909.21359
177694.5356,-61920.09889
178747.5486,-61946.78687
176825.5221,-61977.83345
175207.3452,-61995.55838
177247.0313,-62011.8081
178752.9354,-62029.93536
177244.7738,-62054.0529
175101.6215,-62066.54752
176900.5122,-62063.95472
179471.9016,-62062.68067
178790.8216,-62070.28026
176284.9675,-62071.97899
177330.4704,-62056.17631
179811.0893,-62035.36684
179212.1967,-62016.949
176389.6854,-61988.11525
176779.0752,-61946.58571
179562.6497,-61901.30107
179625.1228,-61858.27397
176753.3707,-61822.44412
176386.3327,-61782.83683
179244.0926,-61732.92538
179960.0413,-61699.71069
177306.2634,-61676.04019
176166.7044,-61654.76133
178798.0636,-61628.96742
180137.5365,-61609.49905
177836.6927,-61600.89363
176054.1858,-61592.64583
178328.5652,-61578.85481
180186.0175,-61568.72947
178373.1569,-61569.26591
176033.5774,-61569.35532
177753.5218,-61558.78294
180131.0098,-61552.27858
178940.9806,-61558.49237
176182.9318,-61563.61092
177207.4911,-61557.35243
179955.9733,-61550.98218
179372.2575,-61556.68188
176392.4347,-61559.92288
176691.9034,-61550.73631
179646.3123,-61545.43895
179783.2167,-61551.63038
176764.8818,-61556.54777
176247.0366,-61558.02298
179231.665,-61548.67995
180119.3422,-61550.33398
177269.1148,-61557.62065
175981.9673,-61557.62065
178726.7838,-61549.68578
180292.4788,-61551.27276
177793.7997,-61562.60509
175945.7574,-61560.70519
178336.2095,-61551.02689
180514.3646,-61552.36799
178707.3602,-61558.42531
176218.337,-61560.05699
177897.7353,-61553.7538
180613.6511,-61551.83155
179363.6074,-61558.2018
176439.3957,-61563.3427
177431.3885,-61559.83347
180462.1733,-61556.27955
179957.8732,-61562.091
176803.2374,-61566.65076
176911.5763,-61561.97924
180080.1596,-61554.53611
180427.4387,-61558.09004
177227.9429,-61564.84026
176595.8132,-61565.60022
179694.8602,-61558.78294
180800.3999,-61555.40783
177671.0215,-61560.52638
175160.9877,-61565.17554
177767.514,-61558.2018
179758.1604,-61559.22998
177230.9604,-61566.80722
175170.9119,-61569.95881
177365.0709,-61563.16388
179729.5725,-61565.62258
177819.9289,-61574.228
175162.2394,-61572.10458
176763.049,-61571.47873
179539.7391,-61577.29019
178401.6554,-61572.21634
175353.8385,-61560.92871
176103.1137,-61553.0609
179164.1181,-61546.0648
178845.3151,-61543.60611
175618.0362,-61550.6022
175599.3948,-61557.71006
178757.4951,-61565.51082
179241.2986,-61584.57686
176065.831,-61601.96651
175174.9352,-61591.26003
178209.7656,-61579.3242
179427.3546,-61581.08998
176516.8892,-61590.20949
174973.993,-61587.34847
177611.7224,-61571.36697
179497.1591,-61559.34174
177094.2795,-61554.71492
174893.862,-61547.54001
176999.7763,-61541.66151
179478.7636,-61540.83449
177688.5006,-61546.0648
174965.8346,-61552.70327
176424.8447,-61549.05993
179278.2908,-61548.97053
178247.4283,-61551.161
175174.1529,-61553.44088
175836.2115,-61550.64691
178901.9992,-61542.19795
178744.9111,-61541.05801
175536.2511,-61549.2164
175343.4003,-61549.73049
178898.5793,-61542.265
180244.892,-61559.25233
177114.5078,-61617.59038
175963.8847,-61692.1111
178778.7293,-61778.45589
180003.1579,-61948.4409
176966.5169,-62130.2947
175095.0948,-62227.39067
177496.4097,-62232.33041
179483.6586,-62000.74399
177292.1595,-61495.99689
175296.7745,-61028.66662
177574.2385,-60700.11833
180487.4978,-60450.89638
179037.4954,-60373.44758
176173.857,-60529.70863
177329.4198,-60831.79245
180146.7678,-61121.71693
179176.568,-61355.33736
175888.8499,-61487.43617
176314.0248,-61528.7422
179351.2469,-61544.99192
179280.8389,-61572.59632
176077.3422,-61594.45633
175757.7346,-61606.36981
178840.8001,-61608.47087
179618.2832,-61613.85764
176507.5238,-61631.49317
175401.1348,-61642.95961
178237.4594,-61645.88769
179760.8649,-61656.34831
176980.755,-61672.68743
175187.5639,-61676.88956
177621.6912,-61679.90705
179730.2207,-61688.69128
177539.8839,-61702.88464
175130.9022,-61714.5299
176971.1661,-61717.56973
179607.979,-61721.52599
178105.8747,-61735.87581
175232.5133,-61746.89522
176306.604,-61755.05361
179282.1576,-61762.76496
178574.6579,-61780.62401
175447.4029,-61798.14777
175821.4147,-61809.25659
179051.6888,-61816.49856
179224.289,-61837.46449
176065.2052,-61859.83859
175613.4988,-61873.4061
178711.7188,-61889.45465
179633.2365,-61912.36519
176598.4284,-61941.75773
175385.198,-61963.03659
178155.0262,-61979.42042
179765.8717,-61996.83243
177059.1872,-62028.68367
175161.9041,-62049.02375
177489.8383,-62057.02568
179698.4365,-62068.91681
177613.3093,-62089.3016
174912.861,-62097.12471
176641.8355,-62097.25882
179634.7788,-62093.28021
178320.7644,-62092.29673
175014.405,-62085.59121
174710.0189,-62061.16075
178058.5561,-62026.69436
177772.8784,-61993.47967
174574.9026,-61960.71201
174509.412,-61911.06879
177971.5407,-61856.46347
178283.2805,-61816.69972
175166.1509,-61781.16045
174609.7266,-61740.1897
177644.1547,-61700.22478
178697.0784,-61674.2297
175776.5324,-61659.47755
174425.4141,-61637.88577
177186.4804,-61614.84112
178914.9408,-61604.46991
176352.6039,-61601.67594
174358.2918,-61593.60696
176599.4789,-61580.6653
178909.934,-61579.45831
176955.1399,-61579.70417
174350.804,-61578.51953
175963.5271,-61568.57301
178744.4864,-61562.18041
177549.1375,-61569.80235
174583.2398,-61574.11624
175405.0017,-61568.01421
178436.837,-61562.82861
178028.046,-61565.01908
174887.9388,-61567.56718
174935.4362,-61564.77321
178063.1158,-61558.38061
178448.1693,-61563.05213
175267.0244,-61573.73626
174531.9426,-61569.60119
177529.4679,-61565.13084
178704.678,-61569.51178
175802.1698,-61577.31254
174274.3387,-61573.95978
176935.9397,-61563.25329
178793.6379,-61560.25816
176369.7477,-61567.65658
174203.0366,-61574.78679
176344.1102,-61569.31061
179696.559,-61560.90636
178391.3736,-61565.17554
175445.0113,-61571.81401
176742.8206,-61566.89663
179475.0979,-61566.40489
178375.5709,-61571.7246
175152.3152,-61572.3728
175594.8574,-61567.27661
178939.5277,-61566.44959
178726.0909,-61574.98796
175455.4496,-61578.85481
175008.2135,-61572.50691
178458.7864,-61564.37088
179038.8812,-61566.31548
175872.6002,-61576.97726
174608.7208,-61575.25618
177833.8764,-61566.89663
179243.5785,-61568.23773
176117.4635,-61572.30575
174036.0467,-61569.48943
177082.8354,-61563.40975
179264.9691,-61563.67797
176716.4232,-61568.30479
173974.6242,-61565.95785
176409.9808,-61563.23094
179239.5329,-61562.87331
177402.4206,-61573.82567
174068.0097,-61579.92769
175660.5268,-61576.8655
179011.1427,-61578.02779
177979.1403,-61584.24158
174372.5076,-61568.97534
174963.7112,-61550.93748
178601.4353,-61548.59055
178511.1789,-61552.94914
174788.8088,-61564.43793
174371.9711,-61566.00256
178080.2149,-61566.89663
178890.8456,-61585.78385
175319.9757,-61607.91208
173921.8517,-61605.25222
177441.6256,-61591.72941
179036.4449,-61589.98598
175959.1014,-61597.20559
173779.0911,-61596.89267
176828.3384,-61578.51953
179353.1021,-61565.84609
176942.1759,-61562.76155
174048.2508,-61560.88401
176338.567,-61552.74797
179451.1368,-61547.62942
177625.7369,-61557.35243
174291.1249,-61564.14736
175701.4976,-61560.32521
179224.9595,-61552.79267
178332.6108,-61556.3019
174665.1589,-61558.62648
175106.0918,-61551.87625
178797.6612,-61545.88599
178889.9739,-61550.31163
175175.874,-61553.7091
174680.3358,-61550.75867
178318.2387,-61544.70134
179366.826,-61553.97732
175751.2302,-61590.72358
174104.5772,-61666.40659
176161.0941,-61755.34418
178004.599,-61882.79383
174819.3413,-62076.5164
172554.4167,-62223.3003
175062.8635,-62266.28271
177668.2946,-62190.28678
175203.456,-61815.44802
172707.2579,-61286.94103
175128.5777,-60887.56006
178651.3691,-60586.90674
177498.9355,-60393.00536
174104.9348,-60409.97033
175112.842,-60641.26618
178508.1391,-60963.0419
177679.694,-61236.31432
173852.2036,-61425.70066
173985.733,-61510.05614
177659.3092,-61536.56531
177864.0959,-61570.71877
174049.726,-61601.63124
173328.0776,-61613.67883
176936.4538,-61618.73032
178126.7736,-61628.81096
174609.2572,-61647.04998
173057.8003,-61655.32013
176277.6361,-61658.98581
178270.1601,-61666.69716
175211.3462,-61685.29382
172868.5704,-61696.49204
175523.7342,-61696.78261
178187.7268,-61701.7
175894.3708,-61715.8263
172880.9756,-61725.92929
174754.2977,-61730.57845
177998.3628,-61735.94287
176503.3217,-61756.05944
173024.5856,-61772.91265
174056.5656,-61773.71732
177696.659,-61772.8009
177109.4787,-61791.88929
173356.9113,-61811.49176
173391.8471,-61829.03788
177193.3871,-61838.8503
178753.2036,-61851.76961
175259.1119,-61870.50037
174038.7066,-61886.57127
177331.655,-61901.12226
178721.8441,-61924.65865
175164.0722,-61957.00162
173493.704,-61977.8558
176155.1709,-61993.09969
178275.0104,-62023.76628
175603.2393,-62053.71762
173283.2176,-62074.03536
175418.4127,-62088.63104
178034.4609,-62099.94103
176199.9862,-62120.50463
173277.205,-62135.30149
174659.2581,-62138.58719
177710.4277,-62138.31897
176733.5894,-62138.90012
173411.9637,-62133.06631
174129.0077,-62107.71943
177326.1565,-62079.33272
177315.45,-62052.66709
173873.2813,-62018.11129
173777.1912,-61969.5186
176966.0252,-61910.10766
177881.195,-61866.56646
174499.309,-61828.88142
173560.2452,-61785.25082
176590.9852,-61736.90399
178268.0813,-61710.19366
175137.1384,-61696.42498
173461.4057,-61669.40173
176055.5939,-61641.39499
178348.2347,-61622.61952
175819.4477,-61618.08212
173406.4428,-61610.86251
175478.6954,-61600.15602
178253.6868,-61591.66236
176558.4858,-61590.05303
173551.3715,-61589.20367
174862.6813,-61585.47093
177905.3572,-61581.24645
177136.7701,-61584.57686
173814.7198,-61584.4651
174427.1799,-61575.30088
177604.1451,-61567.38836
177513.2853,-61577.15608
174419.7815,-61585.69444
174225.4554,-61580.86647
177347.0107,-61573.87037
178079.0079,-61571.74695
175006.9842,-61581.9617
174039.7124,-61574.07154
176968.8191,-61569.19886
178401.5883,-61572.61867
175622.8194,-61587.08025
173966.8234,-61588.01902
176446.7718,-61579.81593
178507.1332,-61575.50205
176255.9326,-61583.12399
173969.8409,-61583.43692
175883.9996,-61577.87133
178464.3073,-61582.76636
176919.3547,-61589.31543
174148.5431,-61590.2542
175053.3417,-61588.64487
177009.477,-61590.27655
176284.1629,-61591.5059
173270.0972,-61598.03261
173726.5645,-61591.66236
176810.9711,-61585.44857
176850.6455,-61591.37179
173707.4761,-61598.5467
173343.8579,-61594.34457
176395.4969,-61584.77802
177213.5707,-61583.01223
174155.3157,-61598.16672
172999.6858,-61596.02095
175848.9073,-61584.44274
177376.3808,-61587.03555
174673.4067,-61594.81395
172830.2148,-61589.47189
175250.5958,-61580.44178
177411.9648,-61584.88978
175258.1731,-61592.60113
172905.9649,-61592.847
174654.0725,-61584.88978
177307.2916,-61582.90047
175878.7693,-61598.36788
172980.3962,-61599.64193
174061.6395,-61581.87229
177010.9522,-61571.21051
176372.4522,-61577.64781
173267.3479,-61584.06277
173486.7303,-61578.51953
176605.5586,-61578.36307
176773.6437,-61593.94224
173617.1751,-61616.91983
173075.9052,-61617.18805
176144.3974,-61608.09089
177074.5652,-61610.39312
174103.2361,-61614.37173
172843.6035,-61608.9179
175618.3491,-61602.65942
177285.521,-61600.75952
174676.8936,-61597.36205
172694.7856,-61583.99571
174990.8686,-61568.95299
177461.8092,-61563.16388
176676.503,-61563.9462
174185.9375,-61569.91411
175591.4376,-61566.78487
178180.7531,-61561.26399
176811.8205,-61564.61675
173839.8431,-61570.76348
174731.3872,-61566.24842
177722.3859,-61563.4321
177197.8351,-61568.4389
174036.5161,-61575.74792
174137.9931,-61566.29313
177257.1119,-61554.71492
177599.1383,-61561.33104
174439.0711,-61577.93839
173722.2953,-61599.44077
176714.6798,-61649.03929
177759.6686,-61722.97886
174735.3211,-61818.55492
173185.4511,-61995.98306
175757.5558,-62163.26352
177358.7453,-62259.48778
174714.8916,-62281.5713
172594.024,-62071.24139
175021.6246,-61583.2134
177694.9379,-61130.2553
176165.6763,-60744.46419
173937.5426,-60479.23839
175625.4793,-60419.87216
178344.7031,-60556.2625
177093.296,-60855.73117
173999.971,-61149.83543
174619.3826,-61365.39565
177547.0364,-61492.17474
177181.8983,-61546.51183
173963.6047,-61574.11624
173866.7546,-61595.81978
176963.8571,-61611.73422
177450.4769,-61629.50386
174321.7914,-61649.15104
173430.2921,-61656.54947
176397.2403,-61655.78951
177635.3705,-61665.15489
174767.4182,-61683.39392
173237.5083,-61695.41916
175897.9694,-61693.4075
177853.7471,-61698.83897
175548.254,-61716.45215
173393.3894,-61728.72326
175504.3999,-61725.28109
178013.2267,-61726.86806
176302.536,-61742.62604
173603.2276,-61755.70181
175000.9045,-61757.69112
177885.0618,-61764.06136
176946.6015,-61785.072
173925.495,-61804.51802
174449.3082,-61809.41305
177549.4057,-61817.70555
177427.097,-61832.65887
174247.6507,-61854.29536
174046.1944,-61870.45567
177147.2084,-61882.30209
177804.9085,-61901.90457
174687.0413,-61931.52063
173669.6122,-61952.03953
176155.6403,-61967.26107
176685.7119,-61989.79163
173989.868,-62023.76628
172300.2997,-62056.80216
174836.0157,-62063.39592
176851.3384,-62080.18209
174593.4769,-62106.35598
172310.1792,-62120.7505
174211.1503,-62125.71259
176754.1977,-62128.26069
175180.3667,-62136.1285
172407.3422,-62135.92734
173572.7621,-62125.26555
176509.5802,-62106.37833
175754.4712,-62086.95466
172672.948,-62061.98777
173127.046,-62013.21626
176268.6731,-61960.86847
176351.7098,-61917.6402
173214.866,-61882.88324
172817.4743,-61840.59374
175926.6691,-61789.07297
176738.6632,-61753.71251
173753.7666,-61727.62802
172633.1172,-61701.7447
175435.4224,-61670.54166
176986.8346,-61648.83812
174344.4561,-61641.70791
172510.4731,-61635.20356
174929.0883,-61619.35617
177024.6538,-61609.94609
174885.2119,-61608.60498
172507.8803,-61606.01218
174314.5048,-61601.49713
176929.1671,-61598.77021
175551.115,-61598.99373
172719.6631,-61597.47381
173839.9996,-61591.5059
176745.7264,-61587.23671
176070.2567,-61593.11522
172970.4944,-61595.41745
173255.8591,-61587.97432
176335.6389,-61579.99475
176769.911,-61580.26297
174813.0604,-61583.57103
174239.1123,-61579.86064
177057.3544,-61576.64199
177910.9005,-61576.57493
174805.5279,-61586.92379
173495.7157,-61586.90144
176233.1338,-61583.41456
177864.5206,-61588.399
175230.144,-61595.46215
173273.4723,-61596.51269
175560.9051,-61591.70706
177860.8326,-61585.96266
175842.6041,-61589.89657
173318.5334,-61597.22794
174963.6665,-61595.10453
177687.5395,-61594.12105
176373.1228,-61598.36788
173464.3785,-61605.0734
174364.7068,-61599.57488
177314.3324,-61595.12688
176799.147,-61605.83336
173698.6248,-61610.7731
173802.3146,-61605.85572
176903.7979,-61593.76342
177235.6543,-61596.44563
174128.7841,-61607.95678
173458.2765,-61606.79449
176484.8368,-61596.37858
177550.8362,-61601.09479
174625.3058,-61607.93443
173247.3654,-61600.46895
175913.5933,-61594.05399
177678.9117,-61594.41162
175188.4133,-61599.06079
173121.1898,-61600.26778
175323.8649,-61594.92571
177684.0526,-61592.42232
175798.5041,-61596.13271
173218.5317,-61603.93347
174747.7933,-61596.82561
177515.4534,-61594.67984
176368.2054,-61609.432
173422.9384,-61618.10447
174194.2524,-61600.75952
177251.0099,-61580.77706
177012.6062,-61581.64878
174005.0449,-61588.66722
174010.8116,-61593.78577
177154.4057,-61590.96945
177750.7279,-61598.23377
174663.9296,-61616.80807
173803.1863,-61624.96646
176774.8731,-61617.99271
178037.5007,-61617.47862
175195.9682,-61624.31826
173667.1983,-61621.50194
176264.2474,-61614.12586
178171.5218,-61610.1696
175822.9793,-61610.05784
173652.4461,-61607.82267
175761.9143,-61587.34847
178244.5002,-61573.06571
176511.2566,-61581.53702
173813.6245,-61590.70123
175214.9895,-61582.16287
177506.4456,-61576.75374
175763.2778,-61591.88588
172879.6792,-61599.21725
173552.0868,-61593.07052
176643.4895,-61589.38248
176485.5968,-61589.02485
173337.8453,-61591.77412
173091.5738,-61593.4505
176176.6733,-61584.77802
176842.8894,-61584.95683
173744.5129,-61596.31152
172761.7291,-61607.80032
175595.6397,-61641.21618
176926.7308,-61716.78742
174117.9212,-61798.79597
172319.5222,-61954.8335
174685.0073,-62136.21791
176532.5578,-62257.65494
174134.2603,-62305.75589
171784.9355,-62179.96027
173810.4729,-61730.95843
176646.9987,-61223.99851
175371.407,-60854.61358
173038.1084,-60552.03802
174524.9018,-60414.0607
177394.6869,-60494.81755
176449.901,-60774.32612
173280.9825,-61091.60913
173558.077,-61333.87969
176515.4364,-61491.07951
176429.6504,-61558.2912
173237.0389,-61590.14244
172837.725,-61609.14142
175869.091,-61628.56509
176637.611,-61645.68652
173547.4153,-61665.87015
172441.965,-61668.79823
175306.8775,-61664.41729
176829.3219,-61676.8225
174147.5149,-61694.77096
172303.2054,-61704.2928
174663.6167,-61706.30446
176760.8585,-61714.73106
175029.8947,-61725.37049
173719.5907,-61735.29467
175318.5675,-61733.43947
177746.414,-61740.12264
176203.3389,-61751.20911
173299.1321,-61764.10607
174306.7487,-61769.76106
177221.4609,-61776.55599
176473.5715,-61792.85041
173397.7703,-61809.74833
173642.2314,-61819.35958
176690.8528,-61828.38968
176900.5793,-61844.92997
173709.0184,-61865.40417
173149.3307,-61875.55186
176147.929,-61886.12424
177033.751,-61908.0066
174033.9233,-61941.3554
172813.6522,-61957.58277
175555.5854,-61971.10557
177144.5038,-61996.29599
174482.3664,-62027.40962
172547.7558,-62044.53105
174824.7057,-62056.73511
177071.4807,-62076.94108
175048.5361,-62100.56688
172541.2962,-62123.23154
174159.8531,-62130.80879
176866.5376,-62137.17903
175599.1936,-62144.26454
172651.4903,-62150.67949
173562.4803,-62139.54832
176590.9852,-62120.03525
176089.1439,-62108.74761
172963.5206,-62092.00616
173122.218,-62050.67778
176276.4515,-61997.27946
176625.4293,-61954.43117
173544.5766,-61915.44973
172901.6734,-61873.24963
175910.8887,-61823.85228
176998.8152,-61783.70855
174145.4138,-61760.0157
172774.7378,-61729.05853
175499.3708,-61695.01682
177289.2984,-61675.41434
174914.9173,-61668.4406
172961.576,-61654.9625
175259.0895,-61638.64573
177654.1907,-61626.70989
175754.3371,-61625.65936
173188.9827,-61626.62049
174720.6807,-61614.0141
177516.951,-61606.3251
176431.5056,-61609.92373
173508.702,-61614.12586
174269.6672,-61611.06367
177291.1983,-61606.3251
176968.5062,-61610.10255
173870.1074,-61611.55541
173814.161,-61605.00635
176934.9786,-61597.9879
177414.8035,-61603.0394
174334.6214,-61609.32024
173540.6874,-61605.47574
176485.5297,-61599.97721
177022.9551,-61605.98983
173564.0226,-61621.03255
172187.2446,-61620.04907
174783.6679,-61613.03063
176675.5643,-61613.74588
174279.6808,-61619.35617
172085.2535,-61623.17832
174204.5342,-61617.56803
176667.4953,-61611.66717
174947.9532,-61619.04325
172234.7867,-61627.00047
173608.0779,-61621.52429
176412.0148,-61617.8586
175388.0814,-61626.39697
172374.3957,-61638.13163
172986.7218,-61636.00822
176070.5696,-61627.93924
175898.9529,-61632.83427
172754.0624,-61630.53204
172545.4536,-61617.8139
175598.9478,-61612.74005
176225.7577,-61617.63509
173196.4705,-61625.18997
172191.849,-61627.98394
175127.9965,-61621.90427
176462.9098,-61620.00437
173620.8631,-61627.64867
171986.5035,-61624.87705
174484.0204,-61617.43392
176460.5181,-61613.90234
174187.9045,-61622.08308
171923.9857,-61625.25703
173865.637,-61612.33772
176390.6689,-61612.27067
174772.2685,-61621.83721
172037.5549,-61624.51942
173287.0174,-61614.0141
176176.8074,-61612.0695
175376.7267,-61620.11613
172291.4484,-61625.14527
172706.9673,-61621.14431
175747.6539,-61624.67588
175739.8085,-61626.12875
173129.5494,-61619.7585
173813.4904,-61598.21142
176588.7948,-61588.84604
177200.495,-61596.6468
174096.8882,-61615.48932
172890.7434,-61618.48445
175685.6278,-61618.86443
177160.1054,-61628.81096
174411.0643,-61644.47953
172588.1231,-61651.29681
175000.5245,-61642.15495
177132.4116,-61635.29296
174950.5237,-61646.20061
172521.0455,-61646.55824
174334.8449,-61636.32114
176952.2565,-61627.69337
175515.844,-61625.74877
172709.6495,-61621.0549
173786.1095,-61605.20752
176698.2066,-61595.48451
176052.3082,-61603.64289
172956.1893,-61611.466
173276.825,-61604.89459
176373.3463,-61598.12201
176529.7415,-61602.45825
173370.3,-61610.84015
172822.4141,-61609.05202
175877.9646,-61600.71481
176788.0159,-61601.89946
173806.9861,-61608.2697
172604.8869,-61599.55252
175370.4682,-61595.57391
176954.3576,-61602.16768
174337.9965,-61621.99368
172426.0059,-61668.17238
174702.397,-61740.7932
176824.9857,-61822.80175
174698.463,-61983.13081
172104.4984,-62171.22074
173616.0128,-62278.53147
176120.3022,-62309.60039
174769.4969,-62176.11577
172009.0341,-61728.92442
173240.1458,-61214.34256
176561.4809,-60840.84491
176465.8602,-60559.95054
173712.5052,-60414.0607
173980.0109,-60492.26946
176991.0144,-60773.00737
177162.8323,-61095.27482
173907.8148,-61355.60559
173177.248,-61509.76557
176124.9514,-61569.44472
177200.3832,-61597.9879
174294.4106,-61634.17538
172863.0943,-61651.1627
175538.5087,-61654.51546
177311.829,-61665.80309
174807.0478,-61684.17623
172701.4464,-61700.67182
174888.9893,-61704.69513
177249.1324,-61710.6854
175395.7704,-61717.18976
172816.9603,-61721.21307
174362.5834,-61722.2189
177098.8616,-61731.42782
175102.739,-61757.4229
171647.4499,-61774.99137
172534.5683,-61775.52781
175607.4638,-61775.05842
175309.0233,-61789.14002
172179.8014,-61810.46358
172120.2564,-61818.44316
175189.7767,-61821.17007
175676.7989,-61834.37995
172559.3788,-61852.95425
171733.9512,-61864.30894
174654.3631,-61868.66753
175836.368,-61885.18547
172954.1329,-61913.43807
171457.6613,-61932.54881
174027.3296,-61937.73442
175895.5554,-61958.14156
173488.0043,-61988.65169
171344.7626,-62011.29401
173352.4186,-62027.27551
175759.0533,-62045.8051
174019.5288,-62072.51544
171328.2,-62100.72334
172685.3085,-62112.79328
175475.0521,-62128.3948
174489.8095,-62150.61243
171454.3979,-62168.00209
172037.0855,-62171.62307
175060.4048,-62172.96418
174845.2022,-62180.29555
171747.5857,-62177.45688
171586.2732,-62163.24117
174661.5827,-62140.37533
175314.8571,-62114.84964
172287.5592,-62085.83708
171345.7461,-62041.3124
174253.2386,-61988.33877
175647.1158,-61943.32235
172931.96,-61906.55373
171321.405,-61861.64908
173812.8199,-61817.43733
175798.9065,-61781.1828
173533.8254,-61756.84175
171988.4034,-61732.41129
174813.5522,-61697.38611
177041.6635,-61678.09655
175276.1439,-61671.52514
172459.0865,-61665.289
173633.1789,-61648.45814
176497.1526,-61642.26671
175681.314,-61643.51841
172581.7752,-61642.33376
172991.5944,-61636.83523
176070.7037,-61631.26965
176039.8583,-61631.44846
172906.8143,-61636.16468
172533.5401,-61631.13554
175574.0256,-61621.88192
176352.358,-61621.16666
173365.6509,-61631.47082
172189.3233,-61634.80123
175006.9842,-61627.82748
176507.4344,-61626.48638
173832.02,-61633.68364
172072.3566,-61628.43098
174416.0041,-61624.58648
176514.4529,-61626.59813
174382.1635,-61633.72834
171996.2936,-61641.55145
173814.3621,-61635.1365
176461.3898,-61628.49803
175007.9453,-61634.13067
172153.8734,-61639.60685
173230.4899,-61633.57188
176129.5782,-61627.64867
175481.1541,-61634.84593
172436.6453,-61638.35515
172699.3677,-61638.57867
175753.8677,-61637.05875
175941.9353,-61636.14233
172801.5599,-61642.08789
172271.5106,-61642.98196
175337.0524,-61638.51161
176270.3495,-61640.43386
173260.8435,-61646.35708
172008.6318,-61642.62434
174746.5416,-61637.14816
176401.5095,-61634.533
173905.8702,-61641.41734
172066.3887,-61646.20061
174405.2529,-61634.46595
176684.9743,-61626.37462
174778.5493,-61634.13067
172285.9946,-61638.89159
173920.8235,-61634.86828
176658.7781,-61629.90619
175406.4322,-61636.3882
172545.4089,-61640.43386
173487.3785,-61634.51065
176479.3606,-61628.6545
175993.1208,-61628.98977
172888.0164,-61634.62241
172981.782,-61633.1919
176085.1206,-61623.96063
176435.3724,-61628.7439
173337.6441,-61633.90716
172686.6943,-61633.61658
175671.8145,-61625.59231
176697.0219,-61631.02378
172863.7201,-61648.34638
171166.731,-61653.68845
173985.1742,-61632.61075
175759.6568,-61621.03255
173284.067,-61625.59231
171265.6374,-61629.92854
173409.9073,-61629.43681
175759.6568,-61632.36488
173866.0841,-61647.83229
171285.9999,-61662.78561
172794.8767,-61662.31622
175535.4241,-61662.47268
174308.9615,-61668.99939
171370.9141,-61668.99939
172175.6664,-61662.56209
175245.4326,-61656.41536
174887.0447,-61663.76909
171789.0035,-61664.03731
171780.0181,-61651.96736
174884.966,-61630.28617
175363.7627,-61622.12779
172238.2512,-61627.71572
171406.3193,-61621.6137
174329.3687,-61617.8139
175566.2025,-61620.65257
172708.7555,-61629.3921
171162.7076,-61631.22495
173735.8405,-61623.15597
175662.3597,-61618.55151
173267.1691,-61625.63701
171108.3482,-61629.3027
173146.3579,-61619.87026
175550.1316,-61618.99854
173804.1027,-61624.78764
171151.8,-61629.41445
172534.7024,-61630.21912
175379.3419,-61648.43579
174399.3744,-61719.13436
171354.6868,-61803.06516
171853.8459,-61913.08044
174763.2161,-62099.38223
174417.211,-62263.5558
171131.1023,-62331.57215
171612.9165,-62285.28169
175367.2719,-61938.74025
175984.4483,-61408.84744
173102.5485,-60997.57534
172431.9962,-60675.15143
175584.7991,-60439.13936
177042.2893,-60417.52522
174165.5975,-60646.45179
172356.1343,-60977.25761
174675.9101,-61250.61944
176497.0632,-61451.96396
174142.2622,-61552.01036
171832.1871,-61591.90823
173677.3683,-61622.2619
176134.2497,-61653.24141
174508.652,-61676.28606
171788.0424,-61689.87592
173035.605,-61693.11693
175863.9948,-61699.35306
175018.4506,-61715.64748
171968.801,-61727.80683
172350.3452,-61733.64064
175388.7967,-61739.56385
175434.1484,-61751.45498
172293.4377,-61765.40247
171889.6311,-61772.1974
174945.1592,-61768.3976
175732.9688,-61777.65122
172668.3659,-61797.8572
171573.4657,-61807.08847
174390.4113,-61809.56951
175855.9034,-61817.1244
173188.2674,-61834.17879
171401.5137,-61847.34396
173790.4681,-61856.35172
175873.0919,-61866.52176
173704.7268,-61890.03579
171332.0221,-61904.67619
173129.2812,-61913.86275
175725.0563,-61930.29129
174275.7469,-61954.31941
171439.2881,-61981.61089
172503.2982,-61997.01124
175403.2583,-62013.01509
174710.153,-62037.73612
171718.9755,-62067.37454
172103.5373,-62081.07615
175251.8475,-62099.67281
175409.6061,-62121.73398
172256.3562,-62152.86996
171754.2019,-62168.51618
174815.8321,-62173.74649
175760.2156,-62192.20903
172796.6425,-62208.83873
171573.9574,-62208.61521
174366.629,-62197.17112
175983.7778,-62192.58901
173339.2535,-62185.21293
171486.0033,-62161.63184
173817.2008,-62124.17032
176069.5414,-62085.07712
174126.7054,-62045.84981
171737.3039,-61995.44662
173454.7002,-61941.51186
176126.9183,-61896.78602
174736.1481,-61860.08446
170943.7723,-61832.77063
171736.1417,-61793.78918
174843.66,-61757.78052
174383.594,-61737.88747
171323.1485,-61727.29274
171515.5299,-61708.89726
174598.1037,-61688.64658
174894.0185,-61679.05768
171741.819,-61676.33077
171104.012,-61672.68743
174090.965,-61656.88475
175177.3939,-61652.90614
172266.8391,-61660.61749
170832.5277,-61659.25403
173484.6516,-61648.54755
175272.21,-61642.37847
172846.9339,-61649.95571
170790.9311,-61655.99068
172967.2534,-61646.31237
175255.692,-61641.79732
173384.471,-61650.49215
170823.0058,-61652.30264
172336.7107,-61645.86534
175111.8139,-61641.5291
173977.3958,-61645.19479
171035.8838,-61653.82256
171765.5342,-61651.118
174765.3171,-61647.85464
174430.6221,-61653.35317
171288.9056,-61658.06939
171274.444,-61654.47076
174360.7505,-61651.74385
174822.0458,-61656.66123
171746.8705,-61657.10827
170904.0086,-61657.13062
173852.1142,-61649.8663
175052.6041,-61653.50964
172209.9539,-61656.81769
170714.4211,-61653.64375
173306.4635,-61643.89839
175177.4609,-61647.02763
172772.7485,-61661.10923
170612.3853,-61662.42798
173665.5219,-61647.38526
176531.4626,-61643.67487
174512.5859,-61651.49798
171773.8043,-61652.32499
173042.8693,-61651.05094
175785.339,-61642.35611
174778.3929,-61645.3736
171751.3855,-61656.37066
172328.7087,-61653.84491
175364.545,-61644.56894
175184.457,-61643.16078
172079.4868,-61645.19479
171811.5564,-61646.35708
174865.1847,-61641.79732
175486.0938,-61645.30654
172426.4082,-61650.82743
171467.7866,-61647.36291
174307.4863,-61641.66321
175694.6356,-61641.95378
172948.8132,-61647.76524
171267.7608,-61651.45327
173712.237,-61646.33473
175719.446,-61648.92753
173484.4727,-61660.41632
171209.4675,-61655.32013
173101.6544,-61635.98587
175615.6222,-61627.4475
174054.2634,-61634.73417
171281.2166,-61643.74192
172485.618,-61640.45622
175371.4964,-61643.07137
174582.3904,-61655.87892
171531.1091,-61675.5261
171983.9554,-61677.78363
175057.8344,-61668.61941
175013.9356,-61671.5922
171853.7118,-61674.98966
171500.9789,-61675.16848
174552.7073,-61665.82545
175351.5587,-61661.62332
172369.8136,-61656.52712
171282.0883,-61646.20061
174084.1924,-61626.46402
175622.3724,-61620.04907
172952.9706,-61635.1812
171239.24,-61637.52814
173694.6015,-61632.00726
175886.3018,-61632.47664
173811.6799,-61635.89646
171460.634,-61637.99752
173309.4139,-61627.76043
175962.4095,-61624.2512
174550.6733,-61633.08014
171722.5741,-61633.77304
172823.2634,-61628.02865
175781.0027,-61620.71963
175095.05,-61629.3027
172045.311,-61647.02763
172342.0304,-61668.77588
175371.8541,-61727.51626
175500.2648,-61804.71919
172342.388,-61940.23781
171693.6063,-62128.01482
174554.2049,-62274.32934
175340.1816,-62336.42248
172029.7765,-62303.16309
169884.1655,-61975.17359
172809.2265,-61471.20881
174845.6716,-61052.7171
172704.7545,-60681.81225
171137.6737,-60479.84189
173483.2658,-60491.39774
175580.1276,-60691.60231
173451.0122,-61015.99318
170863.0825,-61292.3278
172382.9117,-61483.32345
174974.1048,-61571.41168
173637.4481,-61609.32024
170696.2491,-61635.47178
171537.9934,-61671.50279
174481.7182,-61690.8594
173963.4259,-61705.81272
170856.6229,-61720.11783
171027.1443,-61722.46477
174074.2235,-61727.49391
174356.1237,-61741.64256
171257.8143,-61755.34418
170565.1338,-61764.70956
173559.664,-61762.83202
174652.7984,-61769.6046
171741.059,-61785.51904
170306.6582,-61796.20317
172925.5897,-61798.86303
174670.0093,-61803.75806
172203.7178,-61817.63849
170155.9627,-61826.15451
172310.3356,-61832.68122
174635.7664,-61842.96302
172771.9662,-61859.10098
170165.7081,-61877.45176
171698.3449,-61886.99596
174443.072,-61896.49545
173258.3625,-61916.70143
170264.704,-61939.63432
171006.0666,-61948.88794
174035.1527,-61958.52154
173676.139,-61982.10263
170532.7237,-62008.67885
170577.1366,-62027.52138
174684.0462,-62036.84205
175374.5363,-62061.42897
172043.5228,-62094.97894
171136.6008,-62117.97888
173958.9556,-62130.83114
175106.6059,-62147.97493
172222.4933,-62170.28197
170663.1015,-62185.72702
173221.9515,-62189.9068
175080.3873,-62197.23817
172711.393,-62208.63756
170538.0658,-62208.41404
172589.7995,-62186.24111
174993.9531,-62165.02931
173219.761,-62151.59591
170636.9723,-62121.57752
172023.0933,-62073.67773
174837.8932,-62023.43101
173895.0519,-61988.36112
170940.9113,-61945.98221
171601.3159,-61895.15434
174655.2124,-61847.65689
174503.6676,-61817.57144
171434.8625,-61793.58802
171279.1379,-61762.09441
174338.9576,-61730.98078
174994.8248,-61716.00511
171981.2956,-61710.52894
171015.2979,-61691.10527
173888.2123,-61673.20152
175211.1674,-61669.15586
172432.0185,-61678.47653
170825.9339,-61675.39199
173318.8463,-61661.22099
175292.1477,-61659.16463
173045.1939,-61667.56888
170812.5452,-61665.91485
172730.2802,-61652.72732
175249.6124,-61648.5252
173674.3955,-61652.66027
170941.3807,-61659.00816
172156.8015,-61657.33178
175026.2514,-61647.69818
174169.3749,-61646.87117
171169.3014,-61657.66706
171743.4283,-61654.53782
174860.7591,-61648.03346
174894.242,-61652.54851
171814.1269,-61658.09174
171518.1451,-61650.84978
174584.8044,-61644.41248
175370.3341,-61651.27446
172370.5959,-61663.97025
171328.9376,-61658.60583
174163.7423,-61651.02859
175639.4044,-61658.18115
172996.1318,-61663.67968
171215.3907,-61665.2443
173626.9204,-61658.31526
175672.3286,-61661.01982
173538.9216,-61665.04314
171245.8561,-61667.0995
173067.4563,-61658.42702
175663.0973,-61657.66706
174236.5866,-61668.90999
171135.0138,-61674.65439
171233.3615,-61675.81668
174162.1776,-61672.26275
173586.8437,-61673.26858
170587.2396,-61676.53193
170864.3119,-61673.46974
173908.3065,-61665.289
174031.6658,-61667.03244
170969.8121,-61673.93913
170495.8434,-61674.76614
173460.5564,-61665.60193
174383.1693,-61668.59706
171410.2532,-61671.27927
170143.4234,-61668.97704
172873.9348,-61661.91389
174492.9388,-61661.46686
171931.9206,-61670.20639
170031.7317,-61667.63594
172341.8739,-61660.7516
174544.9736,-61656.08009
172542.3691,-61663.76909
170041.0524,-61670.49696
171714.4158,-61671.90512
174391.8418,-61677.3813
173065.4893,-61678.14126
170217.1171,-61664.12671
171146.0109,-61651.83325
174100.3751,-61642.04319
173579.1547,-61653.46493
170476.755,-61662.11506
170617.9956,-61663.41146
173644.9583,-61675.39199
173923.3493,-61690.18885
170820.5918,-61704.58337
170216.7148,-61698.39194
173195.3753,-61686.79138
174241.0346,-61685.65144
171301.4002,-61695.19564
169958.5968,-61693.98864
172672.3221,-61680.89052
174411.6008,-61670.45226
171953.4677,-61658.98581
169871.6038,-61654.38135
172168.6032,-61647.11704
175652.6814,-61640.63503
173872.2979,-61647.98875
171072.6301,-61652.61557
172497.9785,-61645.93239
175145.2297,-61642.62434
173986.0459,-61648.83812
171012.5933,-61656.08009
171735.2699,-61647.80994
174726.1792,-61641.95378
174394.9711,-61645.79828
171244.068,-61656.63888
171185.5958,-61652.92849
174258.9607,-61644.27836
174697.4125,-61652.48145
171614.7046,-61690.43472
170788.2936,-61757.69112
173659.4199,-61826.57919
174749.2686,-61950.07258
171752.6149,-62146.81264
170123.0163,-62297.68691
172561.5692,-62351.21934
174268.5496,-62305.68883
171948.9079,-61970.63619
170102.7432,-61449.23704
172470.5082,-61030.67828
175235.0837,-60684.24859
173814.7645,-60476.1315
171246.7502,-60483.95461
172526.6111,-60696.81027
175167.0674,-61020.95527
174068.7473,-61297.20048
170975.2659,-61505.49638
171530.9526,-61596.42328
174453.1079,-61627.46985
174244.745,-61657.26473
171103.2297,-61689.40654
170842.2954,-61708.42787
173878.2434,-61712.04885
174511.9377,-61720.45311
171442.5515,-61739.22858
170508.7403,-61746.51524
173389.4555,-61744.7271
174690.1035,-61757.10997
171944.3034,-61774.90196
170327.6241,-61781.42867
172949.4614,-61778.05356
174956.5586,-61789.63176
